E_min_MeV,E_max_MeV,E_centro_MeV,N_total,N_baja,N_sube,N_ARTI_S3,dPhi_dE_total,dPhi_dE_baja,dPhi_dE_sube,dPhi_dE_ARTI_S3,E_dPhi_dE_total,E_dPhi_dE_baja,E_dPhi_dE_sube,E_dPhi_dE_ARTI_S3
1.000000e-11,1.258925e-11,1.122018e-11,0,0,0,0,0.000000e+00,0.000000e+00,0.000000e+00,0.000000e+00,0.000000e+00,0.000000e+00,0.000000e+00,0.000000e+00
1.258925e-11,1.584893e-11,1.412538e-11,0,0,0,0,0.000000e+00,0.000000e+00,0.000000e+00,0.000000e+00,0.000000e+00,0.000000e+00,0.000000e+00,0.000000e+00
1.584893e-11,1.995262e-11,1.778279e-11,0,0,0,0,0.000000e+00,0.000000e+00,0.000000e+00,0.000000e+00,0.000000e+00,0.000000e+00,0.000000e+00,0.000000e+00
1.995262e-11,2.511886e-11,2.238721e-11,0,0,0,0,0.000000e+00,0.000000e+00,0.000000e+00,0.000000e+00,0.000000e+00,0.000000e+00,0.000000e+00,0.000000e+00
2.511886e-11,3.162278e-11,2.818383e-11,0,0,0,0,0.000000e+00,0.000000e+00,0.000000e+00,0.000000e+00,0.000000e+00,0.000000e+00,0.000000e+00,0.000000e+00
3.162278e-11,3.981072e-11,3.548134e-11,1,1,0,0,3.392523e+07,3.392523e+07,0.000000e+00,0.000000e+00,1.206374e-03,1.206374e-03,0.000000e+00,0.000000e+00
3.981072e-11,5.011872e-11,4.466836e-11,1,0,1,0,2.694777e+07,0.000000e+00,2.694777e+07,0.000000e+00,1.206374e-03,0.000000e+00,1.206374e-03,0.000000e+00
5.011872e-11,6.309573e-11,5.623413e-11,0,0,0,0,0.000000e+00,0.000000e+00,0.000000e+00,0.000000e+00,0.000000e+00,0.000000e+00,0.000000e+00,0.000000e+00
6.309573e-11,7.943282e-11,7.079458e-11,0,0,0,0,0.000000e+00,0.000000e+00,0.000000e+00,0.000000e+00,0.000000e+00,0.000000e+00,0.000000e+00,0.000000e+00
7.943282e-11,1.000000e-10,8.912509e-11,2,1,1,0,2.701176e+07,1.350588e+07,1.350588e+07,0.000000e+00,2.412747e-03,1.206374e-03,1.206374e-03,0.000000e+00
1.000000e-10,1.258925e-10,1.122018e-10,0,0,0,0,0.000000e+00,0.000000e+00,0.000000e+00,0.000000e+00,0.000000e+00,0.000000e+00,0.000000e+00,0.000000e+00
1.258925e-10,1.584893e-10,1.412538e-10,4,1,3,0,3.408653e+07,8.521633e+06,2.556490e+07,0.000000e+00,4.825494e-03,1.206374e-03,3.619121e-03,0.000000e+00
1.584893e-10,1.995262e-10,1.778279e-10,4,3,1,0,2.707589e+07,2.030692e+07,6.768974e+06,0.000000e+00,4.825494e-03,3.619121e-03,1.206374e-03,0.000000e+00
1.995262e-10,2.511886e-10,2.238721e-10,8,1,7,0,4.301430e+07,5.376787e+06,3.763751e+07,0.000000e+00,9.650988e-03,1.206374e-03,8.444615e-03,0.000000e+00
2.511886e-10,3.162278e-10,2.818383e-10,12,8,4,0,5.125120e+07,3.416747e+07,1.708373e+07,0.000000e+00,1.447648e-02,9.650988e-03,4.825494e-03,0.000000e+00
3.162278e-10,3.981072e-10,3.548134e-10,16,8,8,0,5.428037e+07,2.714019e+07,2.714019e+07,0.000000e+00,1.930198e-02,9.650988e-03,9.650988e-03,0.000000e+00
3.981072e-10,5.011872e-10,4.466836e-10,35,9,26,0,9.431719e+07,2.425299e+07,7.006420e+07,0.000000e+00,4.222307e-02,1.085736e-02,3.136571e-02,0.000000e+00
5.011872e-10,6.309573e-10,5.623413e-10,45,18,27,0,9.632418e+07,3.852967e+07,5.779451e+07,0.000000e+00,5.428681e-02,2.171472e-02,3.257209e-02,0.000000e+00
6.309573e-10,7.943282e-10,7.079458e-10,73,16,57,0,1.241211e+08,2.720463e+07,9.691649e+07,0.000000e+00,8.806527e-02,1.930198e-02,6.876329e-02,0.000000e+00
7.943282e-10,1.000000e-09,8.912509e-10,128,30,98,0,1.728752e+08,4.051763e+07,1.323576e+08,0.000000e+00,1.544158e-01,3.619121e-02,1.182246e-01,0.000000e+00
1.000000e-09,1.258925e-09,1.122018e-09,190,63,127,0,2.038339e+08,6.758703e+07,1.362469e+08,0.000000e+00,2.292110e-01,7.600153e-02,1.532094e-01,0.000000e+00
1.258925e-09,1.584893e-09,1.412538e-09,257,70,187,0,2.190060e+08,5.965143e+07,1.593545e+08,0.000000e+00,3.100380e-01,8.444615e-02,2.255919e-01,0.000000e+00
1.584893e-09,1.995262e-09,1.778279e-09,400,114,286,0,2.707589e+08,7.716630e+07,1.935926e+08,0.000000e+00,4.825494e-01,1.375266e-01,3.450228e-01,0.000000e+00
1.995262e-09,2.511886e-09,2.238721e-09,598,164,434,0,3.215319e+08,8.817931e+07,2.333526e+08,0.000000e+00,7.214114e-01,1.978453e-01,5.235661e-01,0.000000e+00
2.511886e-09,3.162278e-09,2.818383e-09,875,259,616,0,3.737067e+08,1.106172e+08,2.630895e+08,0.000000e+00,1.055577e+00,3.124508e-01,7.431261e-01,0.000000e+00
3.162278e-09,3.981072e-09,3.548134e-09,1362,376,986,0,4.620617e+08,1.275589e+08,3.345028e+08,0.000000e+00,1.643081e+00,4.535965e-01,1.189484e+00,0.000000e+00
3.981072e-09,5.011872e-09,4.466836e-09,1922,499,1423,0,5.179361e+08,1.344694e+08,3.834668e+08,0.000000e+00,2.318650e+00,6.019804e-01,1.716670e+00,0.000000e+00
5.011872e-09,6.309573e-09,5.623413e-09,2765,718,2047,0,5.918586e+08,1.536906e+08,4.381680e+08,0.000000e+00,3.335623e+00,8.661762e-01,2.469447e+00,0.000000e+00
6.309573e-09,7.943282e-09,7.079458e-09,4050,1127,2923,0,6.886172e+08,1.916226e+08,4.969946e+08,0.000000e+00,4.885813e+00,1.359583e+00,3.526230e+00,0.000000e+00
7.943282e-09,1.000000e-08,8.912509e-09,5524,1476,4048,0,7.460647e+08,1.993468e+08,5.467179e+08,0.000000e+00,6.664008e+00,1.780607e+00,4.883400e+00,0.000000e+00
1.000000e-08,1.258925e-08,1.122018e-08,7365,2029,5336,0,7.901246e+08,2.176732e+08,5.724514e+08,0.000000e+00,8.884941e+00,2.447732e+00,6.437209e+00,0.000000e+00
1.258925e-08,1.584893e-08,1.412538e-08,9808,2575,7233,0,8.358018e+08,2.194320e+08,6.163697e+08,0.000000e+00,1.183211e+01,3.106412e+00,8.725700e+00,0.000000e+00
1.584893e-08,1.995262e-08,1.778279e-08,12522,3457,9065,0,8.476109e+08,2.340034e+08,6.136075e+08,0.000000e+00,1.510621e+01,4.170433e+00,1.093578e+01,0.000000e+00
1.995262e-08,2.511886e-08,2.238721e-08,15317,4194,11123,0,8.235624e+08,2.255024e+08,5.980600e+08,0.000000e+00,1.847802e+01,5.059531e+00,1.341849e+01,0.000000e+00
2.511886e-08,3.162278e-08,2.818383e-08,18088,5008,13080,0,7.725265e+08,2.138884e+08,5.586381e+08,0.000000e+00,2.182088e+01,6.041519e+00,1.577937e+01,0.000000e+00
3.162278e-08,3.981072e-08,3.548134e-08,20215,5733,14482,0,6.857986e+08,1.944934e+08,4.913052e+08,0.000000e+00,2.438684e+01,6.916140e+00,1.747070e+01,0.000000e+00
3.981072e-08,5.011872e-08,4.466836e-08,21767,6138,15629,0,5.865721e+08,1.654054e+08,4.211667e+08,0.000000e+00,2.625913e+01,7.404721e+00,1.885441e+01,0.000000e+00
5.011872e-08,6.309573e-08,5.623413e-08,20905,5776,15129,0,4.474793e+08,1.236374e+08,3.238419e+08,0.000000e+00,2.521924e+01,6.968014e+00,1.825123e+01,0.000000e+00
6.309573e-08,7.943282e-08,7.079458e-08,18917,5489,13428,0,3.216437e+08,9.332888e+07,2.283148e+08,0.000000e+00,2.282097e+01,6.621784e+00,1.619918e+01,0.000000e+00
7.943282e-08,1.000000e-07,8.912509e-08,15754,4613,11141,0,2.127716e+08,6.230262e+07,1.504690e+08,0.000000e+00,1.900521e+01,5.565001e+00,1.344021e+01,0.000000e+00
1.000000e-07,1.258925e-07,1.122018e-07,12376,3751,8625,0,1.327710e+08,4.024110e+07,9.252986e+07,0.000000e+00,1.493008e+01,4.525107e+00,1.040497e+01,0.000000e+00
1.258925e-07,1.584893e-07,1.412538e-07,9366,3039,6327,0,7.981361e+07,2.589724e+07,5.391637e+07,0.000000e+00,1.129889e+01,3.666169e+00,7.632726e+00,0.000000e+00
1.584893e-07,1.995262e-07,1.778279e-07,7826,2752,5074,0,5.297399e+07,1.862822e+07,3.434577e+07,0.000000e+00,9.441079e+00,3.319940e+00,6.121139e+00,0.000000e+00
1.995262e-07,2.511886e-07,2.238721e-07,7049,2503,4546,0,3.790097e+07,1.345810e+07,2.444287e+07,0.000000e+00,8.503727e+00,3.019553e+00,5.484174e+00,0.000000e+00
2.511886e-07,3.162278e-07,2.818383e-07,6750,2503,4247,0,2.882880e+07,1.069015e+07,1.813866e+07,0.000000e+00,8.143022e+00,3.019553e+00,5.123469e+00,0.000000e+00
3.162278e-07,3.981072e-07,3.548134e-07,6814,2536,4278,0,2.311665e+07,8.603439e+06,1.451321e+07,0.000000e+00,8.220229e+00,3.059363e+00,5.160866e+00,0.000000e+00
3.981072e-07,5.011872e-07,4.466836e-07,6619,2532,4087,0,1.783673e+07,6.823175e+06,1.101355e+07,0.000000e+00,7.984987e+00,3.054538e+00,4.930449e+00,0.000000e+00
5.011872e-07,6.309573e-07,5.623413e-07,6745,2599,4146,0,1.443792e+07,5.563257e+06,8.874668e+06,0.000000e+00,8.136990e+00,3.135365e+00,5.001625e+00,0.000000e+00
6.309573e-07,7.943282e-07,7.079458e-07,6712,2564,4148,0,1.141234e+07,4.359542e+06,7.052800e+06,0.000000e+00,8.097179e+00,3.093142e+00,5.004038e+00,0.000000e+00
7.943282e-07,1.000000e-06,8.912509e-07,6852,2610,4242,0,9.254228e+06,3.525034e+06,5.729193e+06,0.000000e+00,8.266072e+00,3.148635e+00,5.117437e+00,0.000000e+00
1.000000e-06,1.258925e-06,1.122018e-06,6805,2732,4073,0,7.300472e+06,2.930917e+06,4.369555e+06,0.000000e+00,8.209372e+00,3.295813e+00,4.913560e+00,0.000000e+00
1.258925e-06,1.584893e-06,1.412538e-06,7069,2794,4275,0,6.023942e+06,2.380944e+06,3.642998e+06,0.000000e+00,8.527855e+00,3.370608e+00,5.157247e+00,0.000000e+00
1.584893e-06,1.995262e-06,1.778279e-06,6832,2707,4125,0,4.624563e+06,1.832361e+06,2.792202e+06,0.000000e+00,8.241944e+00,3.265653e+00,4.976291e+00,0.000000e+00
1.995262e-06,2.511886e-06,2.238721e-06,7002,2748,4254,0,3.764826e+06,1.477541e+06,2.287285e+06,0.000000e+00,8.447028e+00,3.315115e+00,5.131913e+00,0.000000e+00
2.511886e-06,3.162278e-06,2.818383e-06,7053,2819,4234,0,3.012289e+06,1.203976e+06,1.808313e+06,0.000000e+00,8.508553e+00,3.400767e+00,5.107786e+00,0.000000e+00
3.162278e-06,3.981072e-06,3.548134e-06,7200,2963,4237,0,2.442617e+06,1.005205e+06,1.437412e+06,0.000000e+00,8.685890e+00,3.574485e+00,5.111405e+00,0.000000e+00
3.981072e-06,5.011872e-06,4.466836e-06,7348,2933,4415,0,1.980122e+06,7.903781e+05,1.189744e+06,0.000000e+00,8.864433e+00,3.538294e+00,5.326139e+00,0.000000e+00
5.011872e-06,6.309573e-06,5.623413e-06,7315,2962,4353,0,1.565803e+06,6.340272e+05,9.317759e+05,0.000000e+00,8.824623e+00,3.573278e+00,5.251344e+00,0.000000e+00
6.309573e-06,7.943282e-06,7.079458e-06,7236,2875,4361,0,1.230329e+06,4.888332e+05,7.414962e+05,0.000000e+00,8.729319e+00,3.468324e+00,5.260995e+00,0.000000e+00
7.943282e-06,1.000000e-05,8.912509e-06,7230,2956,4274,0,9.764750e+05,3.992338e+05,5.772412e+05,0.000000e+00,8.722081e+00,3.566040e+00,5.156041e+00,0.000000e+00
1.000000e-05,1.258925e-05,1.122018e-05,7329,2930,4399,0,7.862625e+05,3.143333e+05,4.719291e+05,0.000000e+00,8.841512e+00,3.534675e+00,5.306837e+00,0.000000e+00
1.258925e-05,1.584893e-05,1.412538e-05,7360,3052,4308,0,6.271922e+05,2.600802e+05,3.671119e+05,0.000000e+00,8.878909e+00,3.681852e+00,5.197057e+00,0.000000e+00
1.584893e-05,1.995262e-05,1.778279e-05,7494,3048,4446,0,5.072669e+05,2.063183e+05,3.009486e+05,0.000000e+00,9.040563e+00,3.677027e+00,5.363537e+00,0.000000e+00
1.995262e-05,2.511886e-05,2.238721e-05,7394,3035,4359,0,3.975596e+05,1.631855e+05,2.343741e+05,0.000000e+00,8.919926e+00,3.661344e+00,5.258582e+00,0.000000e+00
2.511886e-05,3.162278e-05,2.818383e-05,7575,3050,4525,0,3.235232e+05,1.302635e+05,1.932597e+05,0.000000e+00,9.138280e+00,3.679439e+00,5.458840e+00,0.000000e+00
3.162278e-05,3.981072e-05,3.548134e-05,7456,3089,4367,0,2.529465e+05,1.047950e+05,1.481515e+05,0.000000e+00,8.994721e+00,3.726488e+00,5.268233e+00,0.000000e+00
3.981072e-05,5.011872e-05,4.466836e-05,7504,3097,4407,0,2.022161e+05,8.345724e+04,1.187588e+05,0.000000e+00,9.052627e+00,3.736139e+00,5.316488e+00,0.000000e+00
5.011872e-05,6.309573e-05,5.623413e-05,7655,3132,4523,0,1.638581e+05,6.704163e+04,9.681651e+04,0.000000e+00,9.234790e+00,3.778362e+00,5.456428e+00,0.000000e+00
6.309573e-05,7.943282e-05,7.079458e-05,7756,3213,4543,0,1.318744e+05,5.463030e+04,7.724414e+04,0.000000e+00,9.356633e+00,3.876078e+00,5.480555e+00,0.000000e+00
7.943282e-05,1.000000e-04,8.912509e-05,7745,3130,4615,0,1.046030e+05,4.227340e+04,6.232963e+04,0.000000e+00,9.343363e+00,3.775949e+00,5.567414e+00,0.000000e+00
1.000000e-04,1.258925e-04,1.122018e-04,7722,3233,4489,0,8.284239e+04,3.468395e+04,4.815844e+04,0.000000e+00,9.315617e+00,3.900206e+00,5.415411e+00,0.000000e+00
1.258925e-04,1.584893e-04,1.412538e-04,7704,3138,4566,0,6.565066e+04,2.674088e+04,3.890978e+04,0.000000e+00,9.293902e+00,3.785600e+00,5.508302e+00,0.000000e+00
1.584893e-04,1.995262e-04,1.778279e-04,7885,3223,4662,0,5.337336e+04,2.181640e+04,3.155696e+04,0.000000e+00,9.512256e+00,3.888142e+00,5.624114e+00,0.000000e+00
1.995262e-04,2.511886e-04,2.238721e-04,8013,3330,4683,0,4.308419e+04,1.790470e+04,2.517949e+04,0.000000e+00,9.666671e+00,4.017224e+00,5.649447e+00,0.000000e+00
2.511886e-04,3.162278e-04,2.818383e-04,7888,3294,4594,0,3.368912e+04,1.406846e+04,1.962067e+04,0.000000e+00,9.515875e+00,3.973795e+00,5.542080e+00,0.000000e+00
3.162278e-04,3.981072e-04,3.548134e-04,7851,3274,4577,0,2.663470e+04,1.110712e+04,1.552758e+04,0.000000e+00,9.471239e+00,3.949667e+00,5.521572e+00,0.000000e+00
3.981072e-04,5.011872e-04,4.466836e-04,7865,3213,4652,0,2.119442e+04,8.658318e+03,1.253610e+04,0.000000e+00,9.488128e+00,3.876078e+00,5.612050e+00,0.000000e+00
5.011872e-04,6.309573e-04,5.623413e-04,7889,3286,4603,0,1.688670e+04,7.033806e+03,9.852894e+03,0.000000e+00,9.517081e+00,3.964144e+00,5.552938e+00,0.000000e+00
6.309573e-04,7.943282e-04,7.079458e-04,7862,3213,4649,0,1.336767e+04,5.463030e+03,7.904645e+03,0.000000e+00,9.484509e+00,3.876078e+00,5.608431e+00,0.000000e+00
7.943282e-04,1.000000e-03,8.912509e-04,7952,3340,4612,0,1.073987e+04,4.510963e+03,6.228911e+03,0.000000e+00,9.593083e+00,4.029288e+00,5.563795e+00,0.000000e+00
1.000000e-03,1.258925e-03,1.122018e-03,7942,3244,4698,0,8.520257e+03,3.480196e+03,5.040062e+03,0.000000e+00,9.581019e+00,3.913476e+00,5.667543e+00,0.000000e+00
1.258925e-03,1.584893e-03,1.412538e-03,7998,3253,4745,0,6.815602e+03,2.772087e+03,4.043515e+03,0.000000e+00,9.648576e+00,3.924333e+00,5.724243e+00,0.000000e+00
1.584893e-03,1.995262e-03,1.778279e-03,8147,3341,4806,0,5.514683e+03,2.261514e+03,3.253169e+03,0.000000e+00,9.828325e+00,4.030494e+00,5.797831e+00,0.000000e+00
1.995262e-03,2.511886e-03,2.238721e-03,8136,3124,5012,0,4.374554e+03,1.679708e+03,2.694846e+03,0.000000e+00,9.815055e+00,3.768711e+00,6.046344e+00,0.000000e+00
2.511886e-03,3.162278e-03,2.818383e-03,7487,3237,4250,0,3.197648e+03,1.382501e+03,1.815147e+03,0.000000e+00,9.032119e+00,3.905031e+00,5.127088e+00,0.000000e+00
3.162278e-03,3.981072e-03,3.548134e-03,8037,3180,4857,0,2.726571e+03,1.078822e+03,1.647749e+03,0.000000e+00,9.695624e+00,3.836268e+00,5.859356e+00,0.000000e+00
3.981072e-03,5.011872e-03,4.466836e-03,8245,3275,4970,0,2.221844e+03,8.825395e+02,1.339304e+03,0.000000e+00,9.946550e+00,3.950873e+00,5.995677e+00,0.000000e+00
5.011872e-03,6.309573e-03,5.623413e-03,8220,3316,4904,0,1.759522e+03,7.098022e+02,1.049720e+03,0.000000e+00,9.916391e+00,4.000335e+00,5.916056e+00,0.000000e+00
6.309573e-03,7.943282e-03,7.079458e-03,8548,3336,5212,0,1.453407e+03,5.672165e+02,8.861908e+02,0.000000e+00,1.031208e+01,4.024462e+00,6.287619e+00,0.000000e+00
7.943282e-03,1.000000e-02,8.912509e-03,8507,3374,5133,0,1.148945e+03,4.556883e+02,6.932567e+02,0.000000e+00,1.026262e+01,4.070304e+00,6.192315e+00,0.000000e+00
1.000000e-02,1.258925e-02,1.122018e-02,8819,3472,5347,0,9.461112e+02,3.724796e+02,5.736315e+02,0.000000e+00,1.063901e+01,4.188529e+00,6.450479e+00,0.000000e+00
1.258925e-02,1.584893e-02,1.412538e-02,9030,3592,5438,0,7.695035e+02,3.060971e+02,4.634064e+02,0.000000e+00,1.089355e+01,4.333294e+00,6.560259e+00,0.000000e+00
1.584893e-02,1.995262e-02,1.778279e-02,9098,3588,5510,0,6.158412e+02,2.428708e+02,3.729704e+02,0.000000e+00,1.097559e+01,4.328468e+00,6.647118e+00,0.000000e+00
1.995262e-02,2.511886e-02,2.238721e-02,9548,3756,5792,0,5.133756e+02,2.019521e+02,3.114235e+02,0.000000e+00,1.151845e+01,4.531139e+00,6.987316e+00,0.000000e+00
2.511886e-02,3.162278e-02,2.818383e-02,9930,3736,6194,0,4.241037e+02,1.595621e+02,2.645416e+02,0.000000e+00,1.197929e+01,4.507012e+00,7.472278e+00,0.000000e+00
3.162278e-02,3.981072e-02,3.548134e-02,9770,4045,5725,0,3.314495e+02,1.372276e+02,1.942220e+02,0.000000e+00,1.178627e+01,4.879781e+00,6.906489e+00,0.000000e+00
3.981072e-02,5.011872e-02,4.466836e-02,11014,4224,6790,0,2.968027e+02,1.138274e+02,1.829754e+02,0.000000e+00,1.328700e+01,5.095722e+00,8.191276e+00,0.000000e+00
5.011872e-02,6.309573e-02,5.623413e-02,11488,4603,6885,0,2.459049e+02,9.852894e+01,1.473760e+02,0.000000e+00,1.385882e+01,5.552938e+00,8.305882e+00,0.000000e+00
6.309573e-02,7.943282e-02,7.079458e-02,12250,4615,7635,0,2.082854e+02,7.846835e+01,1.298171e+02,0.000000e+00,1.477808e+01,5.567414e+00,9.210662e+00,0.000000e+00
7.943282e-02,1.000000e-01,8.912509e-02,12729,5279,7450,0,1.719163e+02,7.129753e+01,1.006188e+02,0.000000e+00,1.535593e+01,6.368446e+00,8.987483e+00,0.000000e+00
1.000000e-01,1.258925e-01,1.122018e-01,14738,5717,9021,0,1.581107e+02,6.133255e+01,9.677819e+01,0.000000e+00,1.777953e+01,6.896838e+00,1.088270e+01,0.000000e+00
1.258925e-01,1.584893e-01,1.412538e-01,16127,5401,10726,0,1.374284e+02,4.602534e+01,9.140303e+01,0.000000e+00,1.945519e+01,6.515624e+00,1.293956e+01,0.000000e+00
1.584893e-01,1.995262e-01,1.778279e-01,15186,5802,9384,0,1.027936e+02,3.927359e+01,6.352005e+01,0.000000e+00,1.831999e+01,6.999379e+00,1.132061e+01,0.000000e+00
1.995262e-01,2.511886e-01,2.238721e-01,15917,6450,9467,0,8.558232e+01,3.468028e+01,5.090204e+01,0.000000e+00,1.920185e+01,7.781109e+00,1.142074e+01,0.000000e+00
2.511886e-01,3.162278e-01,2.818383e-01,17965,6743,11222,0,7.672732e+01,2.879891e+01,4.792842e+01,0.000000e+00,2.167250e+01,8.134577e+00,1.353792e+01,0.000000e+00
3.162278e-01,3.981072e-01,3.548134e-01,16964,6595,10369,0,5.755076e+01,2.237369e+01,3.517707e+01,0.000000e+00,2.046492e+01,7.956034e+00,1.250889e+01,0.000000e+00
3.981072e-01,5.011872e-01,4.466836e-01,17073,6870,10203,0,4.600793e+01,1.851312e+01,2.749481e+01,0.000000e+00,2.059642e+01,8.287786e+00,1.230863e+01,0.000000e+00
5.011872e-01,6.309573e-01,5.623413e-01,28936,11189,17747,0,6.193859e+01,2.395047e+01,3.798812e+01,0.000000e+00,3.490763e+01,1.349811e+01,2.140951e+01,0.000000e+00
6.309573e-01,7.943282e-01,7.079458e-01,31795,10335,21460,0,5.406070e+01,1.757249e+01,3.648821e+01,0.000000e+00,3.835665e+01,1.246787e+01,2.588878e+01,0.000000e+00
7.943282e-01,1.000000e+00,8.912509e-01,26884,12400,14484,0,3.630920e+01,1.674729e+01,1.956191e+01,0.000000e+00,3.243215e+01,1.495903e+01,1.747311e+01,0.000000e+00
1.000000e+00,1.258925e+00,1.122018e+00,28130,11547,16583,0,3.017815e+01,1.238774e+01,1.779041e+01,0.000000e+00,3.393529e+01,1.393000e+01,2.000529e+01,0.000000e+00
1.258925e+00,1.584893e+00,1.412538e+00,32049,12532,19517,0,2.731098e+01,1.067931e+01,1.663167e+01,0.000000e+00,3.866307e+01,1.511827e+01,2.354479e+01,0.000000e+00
1.584893e+00,1.995262e+00,1.778279e+00,32877,12889,19988,0,2.225435e+01,8.724530e+00,1.352982e+01,0.000000e+00,3.966194e+01,1.554895e+01,2.411299e+01,0.000000e+00
1.995262e+00,2.511886e+00,2.238721e+00,45940,15144,30796,0,2.470096e+01,8.142606e+00,1.655835e+01,0.000000e+00,5.542080e+01,1.826932e+01,3.715148e+01,0.000000e+00
2.511886e+00,3.162278e+00,2.818383e+00,38193,12756,25437,0,1.631198e+01,5.448003e+00,1.086397e+01,0.000000e+00,4.607503e+01,1.538850e+01,3.068652e+01,0.000000e+00
3.162278e+00,3.981072e+00,3.548134e+00,25016,9373,15643,0,8.486736e+00,3.179812e+00,5.306924e+00,0.000000e+00,3.017864e+01,1.130734e+01,1.887130e+01,0.000000e+00
3.981072e+00,5.011872e+00,4.466836e+00,28806,11142,17664,0,7.762574e+00,3.002520e+00,4.760054e+00,0.000000e+00,3.475080e+01,1.344141e+01,2.130938e+01,0.000000e+00
5.011872e+00,6.309573e+00,5.623413e+00,25401,10791,14610,0,5.437179e+00,2.309854e+00,3.127325e+00,0.000000e+00,3.064309e+01,1.301798e+01,1.762512e+01,0.000000e+00
6.309573e+00,7.943282e+00,7.079458e+00,20960,9731,11229,0,3.563806e+00,1.654552e+00,1.909255e+00,0.000000e+00,2.528559e+01,1.173922e+01,1.354637e+01,0.000000e+00
7.943282e+00,1.000000e+01,8.912509e+00,18097,9585,8512,0,2.444159e+00,1.294538e+00,1.149620e+00,0.000000e+00,2.183174e+01,1.156309e+01,1.026865e+01,0.000000e+00
1.000000e+01,1.258925e+01,1.122018e+01,14789,8276,6513,0,1.586579e+00,8.878576e-01,6.987212e-01,0.000000e+00,1.784106e+01,9.983948e+00,7.857111e+00,0.000000e+00
1.258925e+01,1.584893e+01,1.412538e+01,14223,8540,5683,0,1.212032e+00,7.277475e-01,4.842844e-01,0.000000e+00,1.715825e+01,1.030243e+01,6.855821e+00,0.000000e+00
1.584893e+01,1.995262e+01,1.778279e+01,16233,10321,5912,0,1.098807e+00,6.986258e-01,4.001817e-01,0.000000e+00,1.958306e+01,1.245098e+01,7.132080e+00,0.000000e+00
1.995262e+01,2.511886e+01,2.238721e+01,17720,12387,5333,9485,9.527666e-01,6.660226e-01,2.867440e-01,5.099882e-01,2.137694e+01,1.494335e+01,6.433590e+00,1.144245e+01
2.511886e+01,3.162278e+01,2.818383e+01,21577,16439,5138,12592,9.215394e-01,7.020988e-01,2.194406e-01,5.377960e-01,2.602992e+01,1.983157e+01,6.198347e+00,1.519066e+01
3.162278e+01,3.981072e+01,3.548134e+01,27004,21847,5157,15947,9.161170e-01,7.411645e-01,1.749524e-01,5.410057e-01,3.257691e+01,2.635564e+01,6.221268e+00,1.923804e+01
3.981072e+01,5.011872e+01,4.466836e+01,33616,28737,4879,21045,9.058762e-01,7.743981e-01,1.314782e-01,5.671158e-01,4.055345e+01,3.466756e+01,5.885897e+00,2.538813e+01
5.011872e+01,6.309573e+01,5.623413e+01,44032,39597,4435,27580,9.425214e-01,8.475886e-01,9.493283e-02,5.903602e-01,5.311904e+01,4.776877e+01,5.350267e+00,3.327178e+01
6.309573e+01,7.943282e+01,7.079458e+01,54530,50990,3540,30075,9.271678e-01,8.669775e-01,6.019024e-02,5.113620e-01,6.578355e+01,6.151299e+01,4.270562e+00,3.628168e+01
7.943282e+01,1.000000e+02,8.912509e+01,62295,59656,2639,30159,8.413487e-01,8.057067e-01,3.564201e-02,4.073238e-01,7.515104e+01,7.196742e+01,3.183620e+00,3.638302e+01
1.000000e+02,1.258925e+02,1.122018e+02,65155,63404,1751,30296,6.989894e-01,6.802045e-01,1.878490e-02,3.250185e-01,7.860127e+01,7.648891e+01,2.112360e+00,3.654829e+01
1.258925e+02,1.584893e+02,1.412538e+02,66801,65814,987,29403,5.692536e-01,5.608428e-01,8.410852e-03,2.505616e-01,8.058696e+01,7.939627e+01,1.190691e+00,3.547100e+01
1.584893e+02,1.995262e+02,1.778279e+02,63152,62648,504,26897,4.274742e-01,4.240627e-01,3.411563e-03,1.820651e-01,7.618490e+01,7.557689e+01,6.080123e-01,3.244783e+01
1.995262e+02,2.511886e+02,2.238721e+02,54996,54763,233,21971,2.957018e-01,2.944490e-01,1.252791e-03,1.181334e-01,6.634572e+01,6.606464e+01,2.810850e-01,2.650523e+01
2.511886e+02,3.162278e+02,2.818383e+02,44689,44595,94,16706,1.908638e-01,1.904623e-01,4.014678e-04,7.135022e-02,5.391163e+01,5.379823e+01,1.133991e-01,2.015368e+01
3.162278e+02,3.981072e+02,3.548134e+02,34010,33984,26,12225,1.153797e-01,1.152915e-01,8.820560e-05,4.147360e-02,4.102876e+01,4.099740e+01,3.136571e-02,1.474792e+01
3.981072e+02,5.011872e+02,4.466836e+02,25269,25261,8,8713,6.809432e-02,6.807276e-02,2.155822e-05,2.347959e-02,3.048385e+01,3.047420e+01,9.650988e-03,1.051113e+01
5.011872e+02,6.309573e+02,5.623413e+02,18529,18523,6,6655,3.966202e-02,3.964917e-02,1.284322e-05,1.424528e-02,2.235290e+01,2.234566e+01,7.238241e-03,8.028416e+00
6.309573e+02,7.943282e+02,7.079458e+02,13834,13831,3,5217,2.352180e-02,2.351670e-02,5.100868e-06,8.870409e-03,1.668897e+01,1.668535e+01,3.619121e-03,6.293651e+00
7.943282e+02,1.000000e+03,8.912509e+02,10100,10098,2,3864,1.364094e-02,1.363824e-02,2.701176e-06,5.218671e-03,1.218437e+01,1.218196e+01,2.412747e-03,4.661427e+00
1.000000e+03,1.258925e+03,1.122018e+03,7415,7415,0,2682,7.954886e-03,7.954886e-03,0.000000e+00,2.877276e-03,8.945260e+00,8.945260e+00,0.000000e+00,3.235494e+00
1.258925e+03,1.584893e+03,1.412538e+03,5190,5190,0,1915,4.422727e-03,4.422727e-03,0.000000e+00,1.631893e-03,6.261079e+00,6.261079e+00,0.000000e+00,2.310205e+00
1.584893e+03,1.995262e+03,1.778279e+03,3742,3742,0,1296,2.532950e-03,2.532950e-03,0.000000e+00,8.772590e-04,4.514250e+00,4.514250e+00,0.000000e+00,1.563460e+00
1.995262e+03,2.511886e+03,2.238721e+03,2591,2591,0,906,1.393125e-03,1.393125e-03,0.000000e+00,4.871369e-04,3.125714e+00,3.125714e+00,0.000000e+00,1.092974e+00
2.511886e+03,3.162278e+03,2.818383e+03,1905,1905,0,601,8.136129e-04,8.136129e-04,0.000000e+00,2.566831e-04,2.298142e+00,2.298142e+00,0.000000e+00,7.250305e-01
3.162278e+03,3.981072e+03,3.548134e+03,1373,1373,0,407,4.657934e-04,4.657934e-04,0.000000e+00,1.380757e-04,1.656351e+00,1.656351e+00,0.000000e+00,4.909940e-01
3.981072e+03,5.011872e+03,4.466836e+03,986,986,0,316,2.657050e-04,2.657050e-04,0.000000e+00,8.515495e-05,1.189484e+00,1.189484e+00,0.000000e+00,3.812140e-01
5.011872e+03,6.309573e+03,5.623413e+03,760,760,0,214,1.626808e-04,1.626808e-04,0.000000e+00,4.580750e-05,9.168439e-01,9.168439e-01,0.000000e+00,2.581639e-01
6.309573e+03,7.943282e+03,7.079458e+03,516,516,0,117,8.773493e-05,8.773493e-05,0.000000e+00,1.989338e-05,6.224888e-01,6.224888e-01,0.000000e+00,1.411457e-01
7.943282e+03,1.000000e+04,8.912509e+03,353,353,0,85,4.767575e-05,4.767575e-05,0.000000e+00,1.148000e-05,4.258499e-01,4.258499e-01,0.000000e+00,1.025418e-01
1.000000e+04,1.258925e+04,1.122018e+04,242,242,0,62,2.596200e-05,2.596200e-05,0.000000e+00,6.651422e-06,2.919424e-01,2.919424e-01,0.000000e+00,7.479516e-02
1.258925e+04,1.584893e+04,1.412538e+04,170,170,0,34,1.448678e-05,1.448678e-05,0.000000e+00,2.897355e-06,2.050835e-01,2.050835e-01,0.000000e+00,4.101670e-02
1.584893e+04,1.995262e+04,1.778279e+04,99,99,0,27,6.701284e-06,6.701284e-06,0.000000e+00,1.827623e-06,1.194310e-01,1.194310e-01,0.000000e+00,3.257209e-02
1.995262e+04,2.511886e+04,2.238721e+04,73,73,0,17,3.925054e-06,3.925054e-06,0.000000e+00,9.140538e-07,8.806527e-02,8.806527e-02,0.000000e+00,2.050835e-02
2.511886e+04,3.162278e+04,2.818383e+04,49,49,0,8,2.092757e-06,2.092757e-06,0.000000e+00,3.416747e-07,5.911230e-02,5.911230e-02,0.000000e+00,9.650988e-03
3.162278e+04,3.981072e+04,3.548134e+04,31,31,0,9,1.051682e-06,1.051682e-06,0.000000e+00,3.053271e-07,3.739758e-02,3.739758e-02,0.000000e+00,1.085736e-02
3.981072e+04,5.011872e+04,4.466836e+04,11,11,0,4,2.964255e-07,2.964255e-07,0.000000e+00,1.077911e-07,1.327011e-02,1.327011e-02,0.000000e+00,4.825494e-03
5.011872e+04,6.309573e+04,5.623413e+04,9,9,0,2,1.926484e-07,1.926484e-07,0.000000e+00,4.281075e-08,1.085736e-02,1.085736e-02,0.000000e+00,2.412747e-03
6.309573e+04,7.943282e+04,7.079458e+04,13,13,0,4,2.210376e-07,2.210376e-07,0.000000e+00,6.801157e-08,1.568286e-02,1.568286e-02,0.000000e+00,4.825494e-03
7.943282e+04,1.000000e+05,8.912509e+04,6,6,0,0,8.103527e-08,8.103527e-08,0.000000e+00,0.000000e+00,7.238241e-03,7.238241e-03,0.000000e+00,0.000000e+00
1.000000e+05,1.258925e+05,1.122018e+05,5,5,0,0,5.364050e-08,5.364050e-08,0.000000e+00,0.000000e+00,6.031868e-03,6.031868e-03,0.000000e+00,0.000000e+00
1.258925e+05,1.584893e+05,1.412538e+05,3,3,0,1,2.556490e-08,2.556490e-08,0.000000e+00,8.521633e-09,3.619121e-03,3.619121e-03,0.000000e+00,1.206374e-03
1.584893e+05,1.995262e+05,1.778279e+05,1,1,0,0,6.768974e-09,6.768974e-09,0.000000e+00,0.000000e+00,1.206374e-03,1.206374e-03,0.000000e+00,0.000000e+00
1.995262e+05,2.511886e+05,2.238721e+05,1,1,0,0,5.376787e-09,5.376787e-09,0.000000e+00,0.000000e+00,1.206374e-03,1.206374e-03,0.000000e+00,0.000000e+00
2.511886e+05,3.162278e+05,2.818383e+05,0,0,0,0,0.000000e+00,0.000000e+00,0.000000e+00,0.000000e+00,0.000000e+00,0.000000e+00,0.000000e+00,0.000000e+00
3.162278e+05,3.981072e+05,3.548134e+05,0,0,0,0,0.000000e+00,0.000000e+00,0.000000e+00,0.000000e+00,0.000000e+00,0.000000e+00,0.000000e+00,0.000000e+00
3.981072e+05,5.011872e+05,4.466836e+05,1,1,0,0,2.694777e-09,2.694777e-09,0.000000e+00,0.000000e+00,1.206374e-03,1.206374e-03,0.000000e+00,0.000000e+00
5.011872e+05,6.309573e+05,5.623413e+05,0,0,0,0,0.000000e+00,0.000000e+00,0.000000e+00,0.000000e+00,0.000000e+00,0.000000e+00,0.000000e+00,0.000000e+00
6.309573e+05,7.943282e+05,7.079458e+05,0,0,0,0,0.000000e+00,0.000000e+00,0.000000e+00,0.000000e+00,0.000000e+00,0.000000e+00,0.000000e+00,0.000000e+00
7.943282e+05,1.000000e+06,8.912509e+05,0,0,0,0,0.000000e+00,0.000000e+00,0.000000e+00,0.000000e+00,0.000000e+00,0.000000e+00,0.000000e+00,0.000000e+00
