energy_left_MeV,energy_right_MeV,energy_center_MeV,delta_u,counts,dPhi_du_n_cm-2_s-1,visible_in_figure
1e-10,1.1220184543019652e-10,1.0592537251772898e-10,0.11512925464970378,0,0.0,False
1.1220184543019652e-10,1.2589254117941662e-10,1.1885022274370188e-10,0.11512925464969982,0,0.0,False
1.2589254117941662e-10,1.4125375446227556e-10,1.333521432163324e-10,0.11512925464970399,3,6.031867804211743e-08,False
1.4125375446227556e-10,1.584893192461111e-10,1.496235656094433e-10,0.11512925464969982,1,2.0106226014039866e-08,False
1.584893192461111e-10,1.778279410038923e-10,1.6788040181225588e-10,0.11512925464970399,1,2.0106226014039142e-08,False
1.778279410038923e-10,1.9952623149688828e-10,1.8836490894898022e-10,0.11512925464970378,3,6.031867804211753e-08,False
1.9952623149688828e-10,2.2387211385683377e-10,2.1134890398366475e-10,0.11512925464969982,3,6.03186780421196e-08,False
2.2387211385683377e-10,2.511886431509582e-10,2.371373705661655e-10,0.11512925464970399,5,1.0053113007019571e-07,False
2.511886431509582e-10,2.8183829312644494e-10,2.660725059798809e-10,0.11512925464970003,6,1.2063735608423898e-07,False
2.8183829312644494e-10,3.1622776601683795e-10,2.9853826189179576e-10,0.11512925464970399,6,1.2063735608423485e-07,False
3.1622776601683795e-10,3.5481338923357605e-10,3.349654391578279e-10,0.11512925464970399,7,1.4074358209827398e-07,False
3.5481338923357605e-10,3.9810717055349694e-10,3.7583740428844433e-10,0.11512925464969982,9,1.809560341263588e-07,False
3.9810717055349694e-10,4.4668359215096347e-10,4.2169650342858224e-10,0.11512925464970378,12,2.412747121684701e-07,False
4.4668359215096347e-10,5.011872336272714e-10,4.731512589614803e-10,0.11512925464969982,23,4.624431983229169e-07,False
5.011872336272714e-10,5.623413251903491e-10,5.308844442309878e-10,0.11512925464970399,23,4.6244319832290025e-07,False
5.623413251903491e-10,6.309573444801942e-10,5.956621435290109e-10,0.11512925464970378,22,4.423369723088619e-07,False
6.309573444801942e-10,7.079457843841373e-10,6.683439175686149e-10,0.11512925464969982,36,7.238241365054352e-07,False
7.079457843841373e-10,7.943282347242822e-10,7.498942093324559e-10,0.11512925464970399,37,7.439303625194483e-07,False
7.943282347242822e-10,8.912509381337441e-10,8.413951416451948e-10,0.11512925464969982,55,1.1058424307721928e-06,False
8.912509381337441e-10,1e-09,9.440608762859226e-10,0.11512925464970399,73,1.4677544990248572e-06,False
1e-09,1.1220184543019653e-09,1.0592537251772898e-09,0.11512925464970399,87,1.7492416632214053e-06,False
1.1220184543019653e-09,1.2589254117941663e-09,1.188502227437019e-09,0.11512925464969982,103,2.0709412794461063e-06,False
1.2589254117941663e-09,1.4125375446227555e-09,1.3335214321633241e-09,0.11512925464970378,116,2.3323222176285447e-06,False
1.4125375446227555e-09,1.584893192461111e-09,1.496235656094433e-09,0.11512925464969982,141,2.8349778679796214e-06,False
1.584893192461111e-09,1.7782794100389228e-09,1.678804018122559e-09,0.11512925464970399,186,3.73975803861128e-06,False
1.7782794100389228e-09,1.9952623149688828e-09,1.883649089489802e-09,0.11512925464970378,214,4.302732367004384e-06,False
1.9952623149688828e-09,2.2387211385683377e-09,2.1134890398366477e-09,0.11512925464969982,281,5.649849509945203e-06,False
2.2387211385683377e-09,2.511886431509582e-09,2.3713737056616553e-09,0.11512925464970378,317,6.373673646450419e-06,False
2.511886431509582e-09,2.8183829312644493e-09,2.6607250597988083e-09,0.11512925464970003,372,7.479516077222817e-06,False
2.8183829312644493e-09,3.1622776601683795e-09,2.985382618917957e-09,0.11512925464970399,503,1.0113431685061688e-05,False
3.1622776601683795e-09,3.5481338923357603e-09,3.3496543915782794e-09,0.11512925464970378,625,1.2566391258774485e-05,False
3.5481338923357603e-09,3.981071705534969e-09,3.758374042884443e-09,0.11512925464969982,737,1.4818288572347381e-05,False
3.981071705534969e-09,4.466835921509635e-09,4.216965034285823e-09,0.11512925464970399,862,1.7331566824101738e-05,False
4.466835921509635e-09,5.011872336272715e-09,4.731512589614804e-09,0.11512925464969982,1060,2.1312599574882258e-05,False
5.011872336272715e-09,5.623413251903491e-09,5.3088444423098795e-09,0.11512925464970399,1268,2.5494694585801632e-05,False
5.623413251903491e-09,6.309573444801943e-09,5.95662143529011e-09,0.11512925464970399,1497,3.0099020343016592e-05,False
6.309573444801943e-09,7.0794578438413736e-09,6.683439175686149e-09,0.11512925464969982,1829,3.6774287379678916e-05,False
7.0794578438413736e-09,7.943282347242822e-09,7.49894209332456e-09,0.11512925464970399,2221,4.465592797718093e-05,False
7.943282347242822e-09,8.912509381337441e-09,8.413951416451949e-09,0.11512925464969982,2575,5.1773531986152654e-05,False
8.912509381337441e-09,1e-08,9.440608762859226e-09,0.11512925464970378,2949,5.929326051540153e-05,False
1e-08,1.1220184543019653e-08,1.0592537251772898e-08,0.11512925464970399,3398,6.8320955995705e-05,True
1.1220184543019653e-08,1.2589254117941661e-08,1.188502227437019e-08,0.11512925464969963,3967,7.976139859769628e-05,True
1.2589254117941661e-08,1.4125375446227554e-08,1.333521432163324e-08,0.11512925464970399,4524,9.096056648751308e-05,True
1.4125375446227554e-08,1.5848931924611143e-08,1.4962356560944343e-08,0.115129254649702,5284,0.00010624129825818464,True
1.5848931924611143e-08,1.7782794100389228e-08,1.6788040181225608e-08,0.1151292546497018,5830,0.0001172192976618504,True
1.7782794100389228e-08,1.995262314968883e-08,1.883649089489802e-08,0.11512925464970399,6692,0.00013455086448594994,True
1.995262314968883e-08,2.2387211385683378e-08,2.1134890398366476e-08,0.11512925464969982,7267,0.00014611194444402772,True
2.2387211385683378e-08,2.511886431509582e-08,2.371373705661655e-08,0.11512925464970378,8050,0.00016185511941301537,True
2.511886431509582e-08,2.818382931264455e-08,2.6607250597988113e-08,0.115129254649702,8715,0.00017522575971235413,True
2.818382931264455e-08,3.162277660168379e-08,2.98538261891796e-08,0.1151292546497018,9373,0.00018845565642959243,True
3.162277660168379e-08,3.5481338923357604e-08,3.3496543915782795e-08,0.11512925464970399,9935,0.00019975535544947885,True
3.5481338923357604e-08,3.981071705534969e-08,3.7583740428844434e-08,0.11512925464969982,10280,0.00020669200342432982,True
3.981071705534969e-08,4.4668359215096346e-08,4.2169650342858225e-08,0.11512925464970399,10991,0.0002209875301203042,True
4.4668359215096346e-08,5.011872336272725e-08,4.7315125896148074e-08,0.115129254649702,10776,0.00021666469152728952,True
5.011872336272725e-08,5.6234132519034905e-08,5.308844442309885e-08,0.1151292546497018,10503,0.00021117569182545708,True
5.6234132519034905e-08,6.309573444801943e-08,5.956621435290109e-08,0.11512925464970399,10402,0.00020914496299803513,True
6.309573444801943e-08,7.079457843841373e-08,6.683439175686149e-08,0.11512925464969982,9730,0.0001956335791166079,True
7.079457843841373e-08,7.943282347242822e-08,7.498942093324557e-08,0.11512925464970399,9187,0.0001847158983909776,True
7.943282347242822e-08,8.912509381337459e-08,8.413951416451956e-08,0.1151292546497018,8389,0.00016867113003177754,True
8.912509381337459e-08,1e-07,9.440608762859235e-08,0.1151292546497018,7365,0.00014808235459340107,True
1e-07,1.1220184543019653e-07,1.0592537251772897e-07,0.11512925464970399,6577,0.00013223864849433542,True
1.1220184543019653e-07,1.2589254117941662e-07,1.188502227437019e-07,0.11512925464969982,5799,0.00011659600465541719,True
1.2589254117941662e-07,1.4125375446227555e-07,1.333521432163324e-07,0.11512925464970399,4953,9.958613744753586e-05,True
1.4125375446227555e-07,1.584893192461114e-07,1.4962356560944344e-07,0.1151292546497018,4413,8.872877539995641e-05,True
1.584893192461114e-07,1.7782794100389227e-07,1.6788040181225607e-07,0.1151292546497018,4062,8.167149006902853e-05,True
1.7782794100389227e-07,1.995262314968883e-07,1.883649089489802e-07,0.11512925464970399,3764,7.567983471684333e-05,True
1.995262314968883e-07,2.2387211385683377e-07,2.1134890398366478e-07,0.11512925464969982,3469,6.97484980427043e-05,True
2.2387211385683377e-07,2.5118864315095823e-07,2.3713737056616554e-07,0.11512925464970399,3580,7.198028913026012e-05,True
2.5118864315095823e-07,2.818382931264455e-07,2.6607250597988115e-07,0.1151292546497018,3330,6.69537326267516e-05,True
2.818382931264455e-07,3.162277660168379e-07,2.98538261891796e-07,0.1151292546497018,3420,6.876329296801516e-05,True
3.162277660168379e-07,3.5481338923357606e-07,3.3496543915782793e-07,0.11512925464970399,3344,6.723521979094689e-05,True
3.5481338923357606e-07,3.981071705534969e-07,3.7583740428844433e-07,0.11512925464969982,3470,6.976860426871834e-05,True
3.981071705534969e-07,4.466835921509635e-07,4.2169650342858225e-07,0.11512925464970399,3362,6.75971318591996e-05,True
4.466835921509635e-07,5.011872336272725e-07,4.731512589614808e-07,0.1151292546497018,3257,6.548597812772672e-05,True
5.011872336272725e-07,5.62341325190349e-07,5.308844442309884e-07,0.1151292546497018,3333,6.701405130479373e-05,True
5.62341325190349e-07,6.309573444801942e-07,5.956621435290109e-07,0.11512925464970399,3412,6.860244315990155e-05,True
6.309573444801942e-07,7.079457843841374e-07,6.683439175686149e-07,0.11512925464970003,3290,6.614948358619104e-05,True
7.079457843841374e-07,7.943282347242822e-07,7.498942093324558e-07,0.11512925464970399,3422,6.880350542004194e-05,True
7.943282347242822e-07,8.912509381337459e-07,8.413951416451956e-07,0.1151292546497018,3374,6.783840657136934e-05,True
8.912509381337459e-07,1e-06,9.440608762859235e-07,0.1151292546497018,3478,6.992945407682946e-05,True
1e-06,1.122018454301963e-06,1.0592537251772888e-06,0.115129254649702,3458,6.952732955654854e-05,True
1.122018454301963e-06,1.2589254117941687e-06,1.1885022274370189e-06,0.11512925464970378,3347,6.729553846898912e-05,True
1.2589254117941687e-06,1.4125375446227554e-06,1.3335214321633254e-06,0.115129254649702,3553,7.14374210278823e-05,True
1.4125375446227554e-06,1.584893192461114e-06,1.4962356560944344e-06,0.1151292546497018,3516,7.069349066536295e-05,True
1.584893192461114e-06,1.778279410038923e-06,1.6788040181225607e-06,0.115129254649702,3411,6.85823369338887e-05,True
1.778279410038923e-06,1.9952623149688787e-06,1.8836490894898001e-06,0.1151292546497018,3421,6.87833991940292e-05,True
1.9952623149688787e-06,2.2387211385683422e-06,2.113489039836648e-06,0.11512925464970399,3533,7.103529650760028e-05,True
2.2387211385683422e-06,2.5118864315095823e-06,2.3713737056616578e-06,0.115129254649702,3469,6.974849804270298e-05,True
2.5118864315095823e-06,2.818382931264455e-06,2.6607250597988115e-06,0.1151292546497018,3485,7.007019765892773e-05,True
2.818382931264455e-06,3.162277660168379e-06,2.98538261891796e-06,0.1151292546497018,3568,7.1739014418093e-05,True
3.162277660168379e-06,3.548133892335753e-06,3.349654391578276e-06,0.1151292546497018,3552,7.141731480186838e-05,True
3.548133892335753e-06,3.981071705534978e-06,3.758374042884443e-06,0.11512925464970399,3648,7.334751249921478e-05,True
3.981071705534978e-06,4.466835921509635e-06,4.216965034285827e-06,0.1151292546497018,3599,7.236230742452824e-05,True
4.466835921509635e-06,5.011872336272725e-06,4.731512589614807e-06,0.115129254649702,3749,7.537824132663403e-05,True
5.011872336272725e-06,5.623413251903491e-06,5.308844442309884e-06,0.115129254649702,3646,7.330730004718796e-05,True
5.623413251903491e-06,6.309573444801943e-06,5.956621435290109e-06,0.11512925464970399,3669,7.37697432455096e-05,True
6.309573444801943e-06,7.079457843841388e-06,6.683439175686156e-06,0.1151292546497018,3653,7.344804362928637e-05,True
7.079457843841388e-06,7.943282347242822e-06,7.498942093324566e-06,0.115129254649702,3583,7.204060780830348e-05,True
7.943282347242822e-06,8.91250938133746e-06,8.413951416451957e-06,0.115129254649702,3539,7.115593386368574e-05,True
8.91250938133746e-06,1e-05,9.440608762859237e-06,0.1151292546497018,3691,7.421208021781987e-05,True
1e-05,1.1220184543019652e-05,1.0592537251772898e-05,0.11512925464970378,3667,7.372953079348166e-05,True
1.1220184543019652e-05,1.2589254117941688e-05,1.1885022274370202e-05,0.115129254649702,3662,7.36289996634126e-05,True
1.2589254117941688e-05,1.4125375446227555e-05,1.3335214321633254e-05,0.1151292546497018,3642,7.322687514313193e-05,True
1.4125375446227555e-05,1.584893192461114e-05,1.4962356560944343e-05,0.1151292546497018,3718,7.475494832019893e-05,True
1.584893192461114e-05,1.778279410038923e-05,1.6788040181225608e-05,0.115129254649702,3859,7.758992618817838e-05,True
1.778279410038923e-05,1.995262314968883e-05,1.883649089489802e-05,0.11512925464970399,3635,7.308613156103228e-05,True
1.995262314968883e-05,2.2387211385683423e-05,2.11348903983665e-05,0.1151292546497018,3705,7.449356738201642e-05,True
2.2387211385683423e-05,2.5118864315095822e-05,2.3713737056616578e-05,0.1151292546497018,3689,7.417186776579179e-05,True
2.5118864315095822e-05,2.818382931264455e-05,2.6607250597988112e-05,0.1151292546497018,3763,7.565972849083072e-05,True
2.818382931264455e-05,3.1622776601683795e-05,2.9853826189179604e-05,0.115129254649702,3812,7.664493356551853e-05,True
3.1622776601683795e-05,3.54813389233576e-05,3.3496543915782794e-05,0.11512925464970378,3753,7.545866623068903e-05,True
3.54813389233576e-05,3.9810717055349776e-05,3.7583740428844474e-05,0.115129254649702,3703,7.445335492998822e-05,True
3.9810717055349776e-05,4.466835921509635e-05,4.216965034285827e-05,0.1151292546497018,3712,7.46343109641147e-05,True
4.466835921509635e-05,5.011872336272725e-05,4.731512589614808e-05,0.115129254649702,3792,7.624280904523774e-05,True
5.011872336272725e-05,5.623413251903491e-05,5.3088444423098844e-05,0.1151292546497018,3747,7.533802887460608e-05,True
5.623413251903491e-05,6.309573444801943e-05,5.9566214352901096e-05,0.11512925464970399,3908,7.857513126286496e-05,True
6.309573444801943e-05,7.079457843841388e-05,6.683439175686156e-05,0.1151292546497018,3904,7.849470635881028e-05,True
7.079457843841388e-05,7.943282347242822e-05,7.498942093324567e-05,0.115129254649702,3852,7.74491826060801e-05,True
7.943282347242822e-05,8.912509381337459e-05,8.413951416451957e-05,0.1151292546497018,3822,7.684599582565905e-05,True
8.912509381337459e-05,0.0001,9.440608762859236e-05,0.115129254649702,3923,7.88767246530769e-05,True
0.0001,0.00011220184543019653,0.00010592537251772898,0.11512925464970399,3851,7.742907638006473e-05,True
0.00011220184543019653,0.00012589254117941688,0.00011885022274370201,0.1151292546497018,3871,7.783120090034698e-05,True
0.00012589254117941688,0.00014125375446227554,0.00013335214321633253,0.1151292546497018,3838,7.716769544188367e-05,True
0.00014125375446227554,0.00015848931924611142,0.00014962356560944344,0.115129254649702,3866,7.773066977027665e-05,True
0.00015848931924611142,0.00017782794100389227,0.00016788040181225607,0.1151292546497018,3921,7.883651220104896e-05,True
0.00017782794100389227,0.00019952623149688828,0.0001883649089489802,0.11512925464970399,3964,7.970107991965115e-05,True
0.00019952623149688828,0.00022387211385683424,0.00021134890398366498,0.115129254649702,4062,8.167149006902839e-05,True
0.00022387211385683424,0.0002511886431509582,0.00023713737056616578,0.1151292546497018,3951,7.943969898147014e-05,True
0.0002511886431509582,0.0002818382931264455,0.0002660725059798811,0.1151292546497018,3974,7.990214217979305e-05,True
0.0002818382931264455,0.00031622776601683794,0.000298538261891796,0.1151292546497018,3914,7.869576861895068e-05,True
0.00031622776601683794,0.000354813389233576,0.00033496543915782794,0.11512925464970378,3897,7.835396277671068e-05,True
0.000354813389233576,0.00039810717055349773,0.0003758374042884447,0.1151292546497018,3954,7.950001765951226e-05,True
0.00039810717055349773,0.0004466835921509635,0.00042169650342858267,0.1151292546497018,3929,7.899736200916127e-05,True
0.0004466835921509635,0.0005011872336272725,0.0004731512589614808,0.115129254649702,3936,7.913810559125942e-05,True
0.0005011872336272725,0.0005623413251903491,0.0005308844442309885,0.1151292546497018,3921,7.883651220104896e-05,True
0.0005623413251903491,0.0006309573444801943,0.000595662143529011,0.11512925464970399,3968,7.97815048237073e-05,True
0.0006309573444801943,0.0007079457843841388,0.0006683439175686156,0.1151292546497018,3926,7.893704333111916e-05,True
0.0007079457843841388,0.0007943282347242822,0.0007498942093324566,0.115129254649702,3936,7.913810559125942e-05,True
0.0007943282347242822,0.0008912509381337459,0.0008413951416451957,0.1151292546497018,3910,7.861534371489452e-05,True
0.0008912509381337459,0.001,0.0009440608762859236,0.1151292546497018,4042,8.126936554874774e-05,True
0.001,0.0011220184543019652,0.0010592537251772898,0.11512925464970378,3888,7.817300674258431e-05,True
0.0011220184543019652,0.0012589254117941688,0.00118850222743702,0.115129254649702,4054,8.151064026091609e-05,True
0.0012589254117941688,0.0014125375446227555,0.0013335214321633254,0.1151292546497018,3975,7.99222484058071e-05,True
0.0014125375446227555,0.001584893192461114,0.0014962356560944343,0.1151292546497018,4023,8.088734725448099e-05,True
0.001584893192461114,0.0017782794100389228,0.0016788040181225606,0.1151292546497018,4179,8.402391851267116e-05,True
0.0017782794100389228,0.001995262314968883,0.0018836490894898021,0.11512925464970399,3968,7.97815048237073e-05,True
0.001995262314968883,0.0022387211385683425,0.0021134890398366497,0.115129254649702,4099,8.241542043154786e-05,True
0.0022387211385683425,0.002511886431509582,0.0023713737056616576,0.1151292546497018,4037,8.116883441867754e-05,True
0.002511886431509582,0.002818382931264455,0.002660725059798811,0.1151292546497018,3898,7.837406900272605e-05,True
0.002818382931264455,0.0031622776601683794,0.00298538261891796,0.115129254649702,3589,7.216124516438772e-05,True
0.0031622776601683794,0.0035481338923357606,0.0033496543915782794,0.11512925464970399,3978,7.99825670838477e-05,True
0.0035481338923357606,0.003981071705534978,0.0037583740428844474,0.115129254649702,4059,8.161117139098628e-05,True
0.003981071705534978,0.004466835921509635,0.004216965034285827,0.1151292546497018,4114,8.271701382175859e-05,True
0.004466835921509635,0.005011872336272725,0.004731512589614808,0.1151292546497018,4131,8.305881966399726e-05,True
0.005011872336272725,0.005623413251903491,0.005308844442309884,0.115129254649702,4125,8.293818230791289e-05,True
0.005623413251903491,0.006309573444801942,0.005956621435290109,0.11512925464970378,4095,8.233499552749043e-05,True
0.006309573444801942,0.007079457843841388,0.006683439175686155,0.115129254649702,4209,8.46271052930922e-05,True
0.007079457843841388,0.00794328234724282,0.007498942093324566,0.1151292546497018,4339,8.724091467491748e-05,True
0.00794328234724282,0.008912509381337459,0.008413951416451956,0.115129254649702,4210,8.464721151910624e-05,True
0.008912509381337459,0.01,0.009440608762859235,0.1151292546497018,4297,8.639645318232782e-05,True
0.01,0.011220184543019653,0.010592537251772898,0.11512925464970399,4313,8.671815279855081e-05,True
0.011220184543019653,0.012589254117941661,0.011885022274370188,0.11512925464969982,4506,9.059865441926364e-05,True
0.012589254117941661,0.014125375446227554,0.01333521432163324,0.11512925464970399,4531,9.110131006961135e-05,True
0.014125375446227554,0.015848931924611172,0.014962356560944358,0.11512925464970399,4499,9.04579108371621e-05,True
0.015848931924611172,0.01778279410038923,0.016788040181225625,0.11512925464970003,4491,9.029706102905288e-05,True
0.01778279410038923,0.01995262314968883,0.01883649089489802,0.11512925464970399,4607,9.262938324667833e-05,True
0.01995262314968883,0.022387211385683378,0.02113489039836648,0.11512925464969982,4681,9.411724397172061e-05,True
0.022387211385683378,0.025118864315095822,0.023713737056616554,0.11512925464970399,4867,9.78570020103285e-05,True
0.025118864315095822,0.02818382931264461,0.02660725059798814,0.11512925464970399,4904,9.860093237284795e-05,True
0.02818382931264461,0.03162277660168379,0.02985382618917963,0.11512925464969963,5026,0.00010105389194656454,True
0.03162277660168379,0.03548133892335761,0.033496543915782793,0.11512925464970399,4976,0.00010004858064585876,True
0.03548133892335761,0.03981071705534969,0.03758374042884443,0.11512925464969982,4794,9.638924751130712e-05,True
0.03981071705534969,0.04466835921509635,0.042169650342858224,0.11512925464970399,5302,0.00010660321032643553,True
0.04466835921509635,0.05011872336272735,0.04731512589614813,0.11512925464970399,5712,0.00011484676299219157,True
0.05011872336272735,0.05623413251903491,0.0530884444230989,0.11512925464969982,5860,0.00011782248444227362,True
0.05623413251903491,0.06309573444801943,0.059566214352901097,0.11512925464970378,5628,0.00011315784000701249,True
0.06309573444801943,0.07079457843841373,0.06683439175686148,0.11512925464969982,5942,0.00011947119497542489,True
0.07079457843841373,0.07943282347242822,0.07498942093324558,0.11512925464970399,6308,0.0001268300736965589,True
0.07943282347242822,0.08912509381337477,0.08413951416451965,0.11512925464970378,6164,0.0001239347771505375,True
0.08912509381337477,0.1,0.09440608762859246,0.11512925464969982,6565,0.00013199737378217174,True
0.1,0.11220184543019653,0.10592537251772897,0.11512925464970378,7231,0.0001453881203075173,True
0.11220184543019653,0.12589254117941662,0.11885022274370188,0.11512925464969982,7507,0.00015093743868739728,True
0.12589254117941662,0.14125375446227553,0.1333521432163324,0.11512925464970378,8151,0.00016388584824043333,True
0.14125375446227553,0.15848931924611173,0.14962356560944357,0.11512925464970399,7976,0.0001603672586879762,True
0.15848931924611173,0.1778279410038923,0.16788040181225625,0.11512925464970003,8235,0.000165574771225618,True
0.1778279410038923,0.19952623149688828,0.18836490894898023,0.11512925464970378,6951,0.00013975837702358631,True
0.19952623149688828,0.22387211385683378,0.21134890398366477,0.11512925464969982,7581,0.00015242529941243623,True
0.22387211385683378,0.25118864315095824,0.23713737056616555,0.11512925464970399,8336,0.00016760550005303027,True
0.25118864315095824,0.2818382931264461,0.2660725059798814,0.11512925464970399,8958,0.00018011157263376262,True
0.2818382931264461,0.31622776601683794,0.29853826189179633,0.11512925464969982,9007,0.00018109677770845707,True
0.31622776601683794,0.354813389233576,0.33496543915782795,0.11512925464970378,9284,0.00018666620231433972,True
0.354813389233576,0.39810717055349853,0.3758374042884451,0.11512925464970399,7680,0.0001544158157878206,True
0.39810717055349853,0.4466835921509635,0.4216965034285831,0.11512925464969982,6635,0.0001334048096031545,True
0.4466835921509635,0.5011872336272735,0.47315125896148125,0.11512925464970378,10438,0.00020986878713454094,True
0.5011872336272735,0.5623413251903491,0.530884444230989,0.11512925464969982,13758,0.0002766214575011605,True
0.5623413251903491,0.6309573444801942,0.5956621435290109,0.11512925464970378,15178,0.0003051722984410866,True
0.6309573444801942,0.7079457843841402,0.6683439175686162,0.11512925464970399,15505,0.00031174703434767685,True
0.7079457843841402,0.7943282347242822,0.7498942093324574,0.11512925464969982,16290,0.00032753042176870945,True
0.7943282347242822,0.8912509381337477,0.8413951416451965,0.11512925464970378,15201,0.00030563474163940955,True
0.8912509381337477,1.0,0.9440608762859245,0.11512925464969982,11683,0.00023490103852202775,True
1.0,1.1220184543019653,1.0592537251772898,0.11512925464970399,11203,0.0002252500500352805,True
1.1220184543019653,1.2589254117941713,1.1885022274370214,0.11512925464970378,16927,0.00034033808773964116,True
1.2589254117941713,1.4125375446227555,1.3335214321633269,0.11512925464969982,15201,0.00030563474163942,True
1.4125375446227555,1.5848931924611174,1.4962356560944359,0.11512925464970399,16848,0.00033874969588453143,True
1.5848931924611174,1.7782794100389228,1.6788040181225623,0.11512925464969982,16023,0.00032216205942296077,True
1.7782794100389228,1.9952623149688828,1.8836490894898021,0.11512925464970399,16854,0.00033887033324061567,True
1.9952623149688828,2.238721138568347,2.113489039836652,0.11512925464970399,20126,0.00040465790475855177,True
2.238721138568347,2.5118864315095824,2.3713737056616604,0.11512925464969982,25814,0.0005190221183264251,True
2.5118864315095824,2.818382931264461,2.660725059798814,0.11512925464970378,20765,0.0004175057831815235,True
2.818382931264461,3.1622776601683795,2.985382618917963,0.11512925464969982,17428,0.0003504113069726868,True
3.1622776601683795,3.5481338923357604,3.3496543915782797,0.11512925464970378,12640,0.0002541426968174552,True
3.5481338923357604,3.9810717055349856,3.758374042884451,0.11512925464970399,12376,0.0002488346531497484,True
3.9810717055349856,4.4668359215096345,4.216965034285831,0.11512925464969982,13898,0.00027943632914312604,True
4.4668359215096345,5.011872336272735,4.7315125896148125,0.11512925464970399,14908,0.0002997436174172955,True
5.011872336272735,5.623413251903491,5.308844442309891,0.11512925464969982,13490,0.0002712329889293978,True
5.623413251903491,6.309573444801943,5.95662143529011,0.11512925464970399,11911,0.0002394852580532202,True
6.309573444801943,7.079457843841403,6.683439175686163,0.11512925464970399,11768,0.00023661006773321262,True
7.079457843841403,7.943282347242821,7.498942093324573,0.11512925464969982,9192,0.00018481642952105447,True
7.943282347242821,8.912509381337477,8.413951416451965,0.11512925464970399,9413,0.00018925990547015044,True
8.912509381337477,10.0,9.440608762859245,0.11512925464969982,8684,0.0001746024667059222,True
10.0,11.220184543019652,10.592537251772898,0.11512925464970378,7766,0.00015614495122502826,True
11.220184543019652,12.589254117941714,11.885022274370213,0.11512925464970399,7023,0.00014120602529659688,True
12.589254117941714,14.125375446227554,13.335214321633268,0.11512925464969982,7068,0.00014211080546723377,True
14.125375446227554,15.848931924611174,14.96235656094436,0.11512925464970399,7155,0.00014386004713045006,True
15.848931924611174,17.78279410038923,16.788040181225625,0.11512925464969982,7867,0.00015817568005245164,True
17.78279410038923,19.95262314968883,18.83649089489802,0.11512925464970399,8366,0.00016820868683345145,True
19.95262314968883,22.387211385683468,21.13489039836652,0.11512925464970378,8396,0.00016881187361387294,True
22.387211385683468,25.11886431509582,23.7137370566166,0.11512925464969982,9324,0.0001874704513549077,True
25.11886431509582,28.183829312644608,26.60725059798814,0.11512925464970399,10220,0.00020548562986348002,True
28.183829312644608,31.622776601683793,29.85382618917963,0.11512925464969982,11357,0.00022834640884145078,True
31.622776601683793,35.481338923357605,33.496543915782794,0.11512925464970399,12636,0.0002540622719133986,True
35.481338923357605,39.810717055349855,37.58374042884451,0.11512925464970399,14368,0.0002888862553697144,True
39.810717055349855,44.668359215096345,42.16965034285831,0.11512925464969982,15797,0.00031761805234378776,True
44.668359215096345,50.11872336272735,47.315125896148125,0.11512925464970399,17819,0.0003582728413441635,True
50.11872336272735,56.23413251903491,53.0884444230989,0.11512925464969982,20456,0.0004112929593431995,True
56.23413251903491,63.09573444801943,59.56621435290109,0.11512925464970399,23576,0.00047402438450698677,True
63.09573444801943,70.79457843841402,66.83439175686162,0.11512925464970399,26058,0.000523928037473832,True
70.79457843841402,79.43282347242821,74.98942093324574,0.11512925464969982,28472,0.0005724644670717431,True
79.43282347242821,89.12509381337478,84.13951416451964,0.11512925464970399,30693,0.0006171203950489034,True
89.12509381337478,100.0,94.40608762859246,0.11512925464969982,31602,0.0006353969544956879,True
100.0,112.20184543019653,105.92537251772897,0.11512925464970399,32393,0.0006513009792727699,True
112.20184543019653,125.89254117941714,118.85022274370213,0.11512925464970399,32762,0.0006587201766719503,True
125.89254117941714,141.25375446227554,133.35214321633268,0.11512925464969982,33726,0.0006781025785495085,True
141.25375446227554,158.48931924611173,149.62356560944357,0.11512925464970399,33075,0.0006650134254143446,True
158.48931924611173,177.82794100389228,167.88040181225625,0.11512925464969982,32469,0.0006528290524498604,True
177.82794100389228,199.5262314968883,188.36490894898023,0.11512925464970399,30683,0.000616919332788763,True
199.5262314968883,223.8721138568347,211.3489039836652,0.11512925464970378,28659,0.0005762243313363487,True
223.8721138568347,251.18864315095823,237.13737056616603,0.11512925464969982,26337,0.000529537674531768,True
251.18864315095823,281.83829312644605,266.0725059798814,0.11512925464970378,23578,0.0004740645969590157,True
281.83829312644605,316.22776601683796,298.5382618917963,0.11512925464970003,21111,0.00042446253738239484,True
316.22776601683796,354.81338923357606,334.965439157828,0.11512925464970399,18272,0.0003673809617285232,True
354.81338923357606,398.1071705534986,375.8374042884451,0.11512925464970399,15738,0.000316431785008948,True
398.1071705534986,446.6835921509635,421.6965034285831,0.11512925464969982,13613,0.0002737060547291247,True
446.6835921509635,501.18723362727354,473.1512589614813,0.11512925464970399,11656,0.00023435817041964023,True
501.18723362727354,562.341325190349,530.8844442309891,0.11512925464969963,9971,0.00020047917958599185,True
562.341325190349,630.9573444801943,595.6621435290109,0.11512925464970399,8558,0.00017206908222814696,True
630.9573444801943,707.9457843841402,668.3439175686162,0.11512925464970399,7471,0.00015021361455088642,True
707.9457843841402,794.3282347242822,749.8942093324573,0.11512925464969982,6363,0.00012793591612733567,True
794.3282347242822,891.2509381337477,841.3951416451965,0.11512925464970378,5549,0.00011156944815190339,True
891.2509381337477,1000.0,944.0608762859246,0.11512925464969982,4551,9.150343458989544e-05,True
1000.0,1122.0184543019652,1059.2537251772897,0.11512925464970378,4017,8.076670989839538e-05,False
1122.0184543019652,1258.9254117941714,1188.5022274370212,0.11512925464970399,3398,6.8320955995705e-05,False
1258.9254117941714,1412.5375446227554,1333.5214321633268,0.11512925464969963,2855,5.7403275270083914e-05,False
1412.5375446227554,1584.8931924611175,1496.2356560944359,0.11512925464970399,2335,4.694803774278139e-05,False
1584.8931924611175,1778.2794100389228,1678.8040181225624,0.11512925464969982,2075,4.1720418979132727e-05,False
1778.2794100389228,1995.262314968883,1883.649089489802,0.11512925464970399,1667,3.351707876540325e-05,False
1995.262314968883,2238.7211385683468,2113.489039836652,0.11512925464970378,1415,2.8450309809865435e-05,False
2238.7211385683468,2511.886431509582,2371.37370566166,0.11512925464969982,1176,2.3644921792510882e-05,False
2511.886431509582,2818.3829312644607,2660.725059798814,0.11512925464970399,1007,2.0246969596137414e-05,False
2818.3829312644607,3162.2776601683795,2985.382618917963,0.11512925464969982,898,1.80553909606078e-05,False
3162.2776601683795,3548.1338923357603,3349.6543915782795,0.11512925464970378,701,1.4094464435841462e-05,False
3548.1338923357603,3981.0717055349855,3758.374042884451,0.11512925464970399,672,1.3511383881434302e-05,False
3981.0717055349855,4466.835921509635,4216.965034285831,0.11512925464969982,524,1.0535662431356891e-05,False
4466.835921509635,5011.872336272735,4731.512589614813,0.11512925464970378,462,9.289076418486099e-06,False
5011.872336272735,5623.413251903491,5308.84444230989,0.11512925464969982,442,8.886951898205622e-06,False
5623.413251903491,6309.573444801943,5956.62143529011,0.11512925464970399,318,6.393779872464447e-06,False
6309.573444801943,7079.457843841402,6683.439175686162,0.11512925464970378,263,5.287937441692303e-06,False
7079.457843841402,7943.282347242822,7498.942093324574,0.11512925464969982,253,5.086875181552086e-06,False
7943.282347242822,8912.509381337477,8413.951416451964,0.11512925464970378,206,4.14188255889207e-06,False
8912.509381337477,10000.0,9440.608762859245,0.11512925464969982,147,2.9556152240638602e-06,False
10000.0,11220.184543019654,10592.537251772897,0.11512925464970399,143,2.875190320007597e-06,False
11220.184543019654,12589.254117941713,11885.022274370214,0.11512925464970378,99,1.9905163753898787e-06,False
12589.254117941713,14125.375446227554,13335.214321633266,0.11512925464969982,79,1.5883918551091494e-06,False
14125.375446227554,15848.931924611174,14962.356560944358,0.11512925464970399,91,1.8296665672775619e-06,False
15848.931924611174,17782.794100389227,16788.040181225624,0.11512925464969982,59,1.1862673348283521e-06,False
17782.794100389227,19952.62314968883,18836.49089489802,0.11512925464970399,40,8.042490405615657e-07,False
19952.62314968883,22387.21138568347,21134.89039836652,0.11512925464970399,39,7.841428145475265e-07,False
22387.21138568347,25118.864315095823,23713.7370566166,0.11512925464969982,34,6.836116844773555e-07,False
25118.864315095823,28183.829312644608,26607.25059798814,0.11512925464970378,29,5.830805544071362e-07,False
28183.829312644608,31622.776601683792,29853.826189179632,0.11512925464969982,20,4.0212452028079734e-07,False
31622.776601683792,35481.3389233576,33496.54391578279,0.11512925464970399,22,4.423369723088611e-07,False
35481.3389233576,39810.71705534986,37583.74042884451,0.11512925464970399,9,1.8095603412635226e-07,False
39810.71705534986,44668.359215096345,42169.65034285831,0.11512925464969963,5,1.005311300701995e-07,False
44668.359215096345,50118.72336272735,47315.12589614813,0.11512925464970399,6,1.2063735608423485e-07,False
50118.72336272735,56234.13251903491,53088.4444230989,0.11512925464969982,4,8.042490405615947e-08,False
56234.13251903491,63095.73444801943,59566.214352901094,0.11512925464970399,5,1.0053113007019571e-07,False
63095.73444801943,70794.57843841403,66834.39175686163,0.11512925464970399,9,1.8095603412635226e-07,False
70794.57843841403,79432.82347242821,74989.42093324574,0.11512925464969963,4,8.04249040561596e-08,False
79432.82347242821,89125.09381337477,84139.51416451964,0.11512925464970399,1,2.0106226014039142e-08,False
89125.09381337477,100000.0,94406.08762859245,0.11512925464969982,5,1.0053113007019933e-07,False
