# Energia_MeV    Diff_25NaCl_menos_pura    Diff_5NaCl_menos_pura    Diff_10NaCl_menos_pura
2.51256281e-02 2.10800000e+03 -6.89640000e+04 -2.52301000e+05
7.53768844e-02 2.76805000e+05 3.88438000e+05 4.32903000e+05
1.25628141e-01 1.56699000e+05 2.39522000e+05 3.25155000e+05
1.75879397e-01 8.95180000e+04 1.37977000e+05 1.92780000e+05
2.26130653e-01 5.68270000e+04 9.05820000e+04 1.23895000e+05
2.76381910e-01 4.16220000e+04 6.32120000e+04 8.58820000e+04
3.26633166e-01 2.95730000e+04 4.57070000e+04 6.47140000e+04
3.76884422e-01 2.38840000e+04 3.62500000e+04 5.02720000e+04
4.27135678e-01 2.14670000e+04 3.25410000e+04 4.40170000e+04
4.77386935e-01 1.67660000e+04 2.67590000e+04 3.46350000e+04
5.27638191e-01 1.78150000e+04 2.75000000e+04 3.98950000e+04
5.77889447e-01 8.43400000e+03 1.40270000e+04 1.81470000e+04
6.28140704e-01 7.97300000e+03 1.22970000e+04 1.61000000e+04
6.78391960e-01 6.98900000e+03 1.09100000e+04 1.50310000e+04
7.28643216e-01 6.55400000e+03 1.01210000e+04 1.35100000e+04
7.78894472e-01 9.84500000e+03 1.50420000e+04 2.06910000e+04
8.29145729e-01 4.57600000e+03 6.62200000e+03 9.06600000e+03
8.79396985e-01 3.54500000e+03 5.16900000e+03 8.48500000e+03
9.29648241e-01 2.96400000e+03 5.31600000e+03 7.37300000e+03
9.79899497e-01 3.19400000e+03 5.90600000e+03 7.06100000e+03
1.03015075e+00 3.18000000e+03 5.06500000e+03 7.27200000e+03
1.08040201e+00 2.92700000e+03 4.76000000e+03 6.37800000e+03
1.13065327e+00 3.49300000e+03 5.05800000e+03 7.48300000e+03
1.18090452e+00 8.12900000e+03 1.24060000e+04 1.69540000e+04
1.23115578e+00 1.67400000e+03 2.51000000e+03 3.35300000e+03
1.28140704e+00 1.31900000e+03 2.63100000e+03 4.31000000e+03
1.33165829e+00 1.63100000e+03 2.17700000e+03 3.31300000e+03
1.38190955e+00 1.35100000e+03 2.26200000e+03 3.57300000e+03
1.43216080e+00 9.56000000e+02 1.36700000e+03 2.12300000e+03
1.48241206e+00 9.13000000e+02 9.46000000e+02 2.04000000e+03
1.53266332e+00 1.39200000e+03 2.23200000e+03 3.06100000e+03
1.58291457e+00 1.77800000e+03 2.73600000e+03 4.10200000e+03
1.63316583e+00 9.96000000e+02 1.96400000e+03 3.25100000e+03
1.68341709e+00 6.22000000e+02 1.43200000e+03 1.58400000e+03
1.73366834e+00 1.01300000e+03 1.40500000e+03 2.04600000e+03
1.78391960e+00 1.03800000e+03 1.38200000e+03 1.89500000e+03
1.83417085e+00 2.40000000e+02 1.10600000e+03 1.82900000e+03
1.88442211e+00 5.05000000e+02 4.01000000e+02 1.21300000e+03
1.93467337e+00 9.88200000e+03 1.51790000e+04 2.05230000e+04
1.98492462e+00 2.49000000e+02 3.87000000e+02 8.48000000e+02
2.03517588e+00 1.07000000e+02 7.47000000e+02 1.03400000e+03
2.08542714e+00 -2.33000000e+02 7.30000000e+01 1.02000000e+02
2.13567839e+00 3.62000000e+02 2.50000000e+02 6.01000000e+02
2.18592965e+00 5.39000000e+02 5.03000000e+02 3.37000000e+02
2.23618090e+00 -3.07140000e+04 -4.51380000e+04 -5.93810000e+04
2.28643216e+00 1.76800000e+03 2.43800000e+03 3.60400000e+03
2.33668342e+00 1.25400000e+03 1.77000000e+03 2.86800000e+03
2.38693467e+00 1.43100000e+03 2.18400000e+03 2.90700000e+03
2.43718593e+00 1.41500000e+03 1.98800000e+03 3.26700000e+03
2.48743719e+00 1.80900000e+03 2.63700000e+03 3.77300000e+03
2.53768844e+00 1.72300000e+03 2.56300000e+03 3.26900000e+03
2.58793970e+00 1.36900000e+03 1.61500000e+03 2.81000000e+03
2.63819095e+00 1.19700000e+03 2.53000000e+03 3.09500000e+03
2.68844221e+00 1.51100000e+03 2.26700000e+03 3.59300000e+03
2.73869347e+00 1.63600000e+03 2.46700000e+03 3.44500000e+03
2.78894472e+00 1.22600000e+03 2.16000000e+03 3.16300000e+03
2.83919598e+00 3.85400000e+03 5.75500000e+03 7.54100000e+03
2.88944724e+00 1.69200000e+03 2.55200000e+03 3.37300000e+03
2.93969849e+00 9.35000000e+02 1.16100000e+03 1.61500000e+03
2.98994975e+00 1.68400000e+03 2.59200000e+03 3.66100000e+03
3.04020101e+00 2.58500000e+03 3.73500000e+03 5.28600000e+03
3.09045226e+00 9.42000000e+02 1.38000000e+03 1.54200000e+03
3.14070352e+00 1.41800000e+03 1.97700000e+03 2.64700000e+03
3.19095477e+00 5.26000000e+02 8.41000000e+02 1.44300000e+03
3.24120603e+00 9.35000000e+02 1.23000000e+03 1.98500000e+03
3.29145729e+00 9.16000000e+02 1.43200000e+03 2.02400000e+03
3.34170854e+00 1.11900000e+03 1.45000000e+03 2.05800000e+03
3.39195980e+00 8.93000000e+02 1.21600000e+03 1.67600000e+03
3.44221106e+00 1.02300000e+03 1.35300000e+03 1.99200000e+03
3.49246231e+00 8.48000000e+02 1.32900000e+03 1.83600000e+03
3.54271357e+00 1.09500000e+03 1.71200000e+03 2.11300000e+03
3.59296482e+00 1.33900000e+03 2.07200000e+03 2.67900000e+03
3.64321608e+00 6.13000000e+02 1.18300000e+03 1.65200000e+03
3.69346734e+00 6.84000000e+02 7.89000000e+02 1.20700000e+03
3.74371859e+00 8.52000000e+02 1.40500000e+03 1.57500000e+03
3.79396985e+00 7.50000000e+02 7.94000000e+02 1.19600000e+03
3.84422111e+00 1.23800000e+03 1.99000000e+03 2.39700000e+03
3.89447236e+00 7.09000000e+02 8.82000000e+02 1.06600000e+03
3.94472362e+00 6.11000000e+02 1.18400000e+03 1.37200000e+03
3.99497487e+00 9.55000000e+02 1.47600000e+03 1.97500000e+03
4.04522613e+00 1.08400000e+03 1.48000000e+03 1.91800000e+03
4.09547739e+00 8.20000000e+02 1.25600000e+03 1.67600000e+03
4.14572864e+00 5.32000000e+02 8.61000000e+02 1.33200000e+03
4.19597990e+00 4.39000000e+02 8.97000000e+02 9.16000000e+02
4.24623116e+00 3.91000000e+02 5.75000000e+02 8.12000000e+02
4.29648241e+00 7.45000000e+02 1.15700000e+03 1.40800000e+03
4.34673367e+00 6.06000000e+02 7.29000000e+02 1.06800000e+03
4.39698492e+00 6.36000000e+02 8.08000000e+02 1.24000000e+03
4.44723618e+00 8.54000000e+02 1.60300000e+03 2.05400000e+03
4.49748744e+00 3.95000000e+02 7.48000000e+02 1.10100000e+03
4.54773869e+00 7.24000000e+02 1.36200000e+03 1.92000000e+03
4.59798995e+00 9.40000000e+02 1.38300000e+03 1.80100000e+03
4.64824121e+00 3.19000000e+02 5.58000000e+02 7.49000000e+02
4.69849246e+00 6.08000000e+02 5.71000000e+02 9.84000000e+02
4.74874372e+00 7.61000000e+02 1.34000000e+03 1.31800000e+03
4.79899497e+00 5.48000000e+02 7.94000000e+02 1.08800000e+03
4.84924623e+00 5.07000000e+02 7.43000000e+02 7.49000000e+02
4.89949749e+00 5.38000000e+02 7.87000000e+02 9.30000000e+02
4.94974874e+00 1.46700000e+03 2.02200000e+03 2.75200000e+03
5.00000000e+00 2.56400000e+03 3.71000000e+03 5.48500000e+03
5.05025126e+00 3.84000000e+02 5.93000000e+02 7.30000000e+02
5.10050251e+00 4.89000000e+02 6.47000000e+02 9.32000000e+02
5.15075377e+00 6.24000000e+02 6.61000000e+02 9.03000000e+02
5.20100503e+00 3.66000000e+02 5.03000000e+02 6.67000000e+02
5.25125628e+00 4.79000000e+02 8.37000000e+02 1.20100000e+03
5.30150754e+00 2.39000000e+02 2.78000000e+02 6.33000000e+02
5.35175879e+00 3.24000000e+02 6.08000000e+02 7.37000000e+02
5.40201005e+00 2.22000000e+02 4.27000000e+02 6.77000000e+02
5.45226131e+00 2.49000000e+02 4.77000000e+02 7.84000000e+02
5.50251256e+00 1.22000000e+03 1.81400000e+03 2.58100000e+03
5.55276382e+00 2.14000000e+02 4.45000000e+02 5.49000000e+02
5.60301508e+00 6.84000000e+02 1.13800000e+03 1.58900000e+03
5.65326633e+00 2.74000000e+02 3.67000000e+02 5.89000000e+02
5.70351759e+00 3.35600000e+03 4.83400000e+03 6.63000000e+03
5.75376884e+00 4.67000000e+02 9.17000000e+02 1.26100000e+03
5.80402010e+00 1.27000000e+02 1.82000000e+02 2.80000000e+02
5.85427136e+00 2.43000000e+02 4.18000000e+02 4.13000000e+02
5.90452261e+00 7.50000000e+02 1.20000000e+03 1.58000000e+03
5.95477387e+00 4.35000000e+02 5.39000000e+02 6.79000000e+02
6.00502513e+00 1.38000000e+02 2.58000000e+02 4.39000000e+02
6.05527638e+00 2.60000000e+01 2.86000000e+02 2.44000000e+02
6.10552764e+00 1.16550000e+04 1.78090000e+04 2.36880000e+04
6.15577889e+00 3.07000000e+02 2.72000000e+02 3.56000000e+02
6.20603015e+00 2.85000000e+02 3.30000000e+02 5.38000000e+02
6.25628141e+00 4.27000000e+02 7.97000000e+02 8.49000000e+02
6.30653266e+00 1.83000000e+02 2.72000000e+02 2.33000000e+02
6.35678392e+00 4.31000000e+02 5.25000000e+02 7.05000000e+02
6.40703518e+00 4.01000000e+02 5.33000000e+02 7.02000000e+02
6.45728643e+00 2.13000000e+02 3.03000000e+02 3.41000000e+02
6.50753769e+00 3.79000000e+02 4.61000000e+02 3.95000000e+02
6.55778894e+00 3.37000000e+02 4.11000000e+02 3.42000000e+02
6.60804020e+00 7.44600000e+03 1.08370000e+04 1.47660000e+04
6.65829146e+00 2.59000000e+02 4.05000000e+02 5.02000000e+02
6.70854271e+00 1.76000000e+02 2.44000000e+02 2.52000000e+02
6.75879397e+00 8.20000000e+01 1.44000000e+02 2.94000000e+02
6.80904523e+00 7.90000000e+01 1.58000000e+02 2.45000000e+02
6.85929648e+00 2.24000000e+02 1.89000000e+02 1.69000000e+02
6.90954774e+00 8.50000000e+01 1.85000000e+02 2.64000000e+02
6.95979899e+00 1.44800000e+03 2.39100000e+03 3.42000000e+03
7.01005025e+00 7.50000000e+01 1.72000000e+02 2.71000000e+02
7.06030151e+00 1.41000000e+02 2.31000000e+02 1.20000000e+02
7.11055276e+00 2.70000000e+01 -1.12000000e+02 -1.67000000e+02
7.16080402e+00 1.50000000e+01 8.50000000e+01 1.27000000e+02
7.21105528e+00 9.60000000e+01 1.54000000e+02 1.70000000e+02
7.26130653e+00 1.60000000e+02 2.86000000e+02 2.90000000e+02
7.31155779e+00 1.42000000e+02 2.33000000e+02 2.79000000e+02
7.36180905e+00 6.60000000e+01 2.17000000e+02 3.25000000e+02
7.41206030e+00 6.30900000e+03 9.42800000e+03 1.22220000e+04
7.46231156e+00 4.80000000e+01 1.11000000e+02 1.07000000e+02
7.51256281e+00 1.12000000e+02 1.23000000e+02 1.26000000e+02
7.56281407e+00 1.22000000e+02 1.18000000e+02 1.92000000e+02
7.61306533e+00 9.60000000e+01 2.20000000e+02 1.95000000e+02
7.66331658e+00 -3.10000000e+01 9.20000000e+01 4.90000000e+01
7.71356784e+00 3.90000000e+01 6.80000000e+01 1.79000000e+02
7.76381910e+00 4.30000000e+01 8.70000000e+01 1.03000000e+02
7.81407035e+00 5.08900000e+03 7.67000000e+03 1.02720000e+04
7.86432161e+00 7.90000000e+01 1.17000000e+02 1.52000000e+02
7.91457286e+00 1.54000000e+02 2.14000000e+02 6.20000000e+01
7.96482412e+00 9.10000000e+01 2.80000000e+01 1.73000000e+02
8.01507538e+00 1.60000000e+01 5.00000000e+00 1.00000000e+01
8.06532663e+00 -1.10000000e+01 9.30000000e+01 1.89000000e+02
8.11557789e+00 2.00000000e+00 1.43000000e+02 7.20000000e+01
8.16582915e+00 2.00000000e+01 4.40000000e+01 -1.00000000e+01
8.21608040e+00 1.70000000e+02 1.59000000e+02 1.13000000e+02
8.26633166e+00 -3.00000000e+00 6.10000000e+01 1.60000000e+02
8.31658291e+00 1.02000000e+02 9.40000000e+01 1.46000000e+02
8.36683417e+00 8.20000000e+01 1.29000000e+02 1.63000000e+02
8.41708543e+00 1.08000000e+02 5.60000000e+01 1.01000000e+02
8.46733668e+00 9.20000000e+01 1.36000000e+02 1.00000000e+02
8.51758794e+00 4.40000000e+01 4.50000000e+01 3.10000000e+01
8.56783920e+00 1.81770000e+04 2.64910000e+04 3.59440000e+04
8.61809045e+00 -4.20000000e+01 -1.07000000e+02 -3.90000000e+01
8.66834171e+00 -7.80000000e+01 -1.15000000e+02 -9.10000000e+01
8.71859296e+00 1.15000000e+02 1.32000000e+02 1.30000000e+01
8.76884422e+00 -4.30000000e+01 1.20000000e+01 -6.00000000e+01
8.81909548e+00 -1.08000000e+02 -5.30000000e+01 -8.60000000e+01
8.86934673e+00 -1.70000000e+01 -7.80000000e+01 3.10000000e+01
8.91959799e+00 8.90000000e+01 2.00000000e+00 3.20000000e+01
8.96984925e+00 4.00000000e+01 4.30000000e+01 1.00000000e+00
9.02010050e+00 -1.70000000e+01 1.60000000e+01 -4.50000000e+01
9.07035176e+00 -4.20000000e+01 -3.00000000e+01 -5.60000000e+01
9.12060302e+00 -3.00000000e+00 -3.00000000e+00 0.00000000e+00
9.17085427e+00 -2.00000000e+00 -1.00000000e+01 -9.80000000e+01
9.22110553e+00 8.30000000e+01 5.60000000e+01 2.40000000e+01
9.27135678e+00 -2.00000000e+00 -3.30000000e+01 2.20000000e+01
9.32160804e+00 -3.70000000e+01 -8.80000000e+01 -8.00000000e+00
9.37185930e+00 -4.10000000e+01 4.50000000e+01 -4.10000000e+01
9.42211055e+00 -8.00000000e+00 -2.50000000e+01 -5.00000000e+00
9.47236181e+00 1.50000000e+01 -3.50000000e+01 -8.20000000e+01
9.52261307e+00 -3.40000000e+01 3.40000000e+01 3.80000000e+01
9.57286432e+00 -7.60000000e+01 -4.00000000e+01 -3.10000000e+01
9.62311558e+00 -3.00000000e+00 -3.60000000e+01 -1.70000000e+01
9.67336683e+00 6.60000000e+01 2.00000000e+00 -2.60000000e+01
9.72361809e+00 -5.20000000e+01 1.20000000e+01 -4.30000000e+01
9.77386935e+00 -2.80000000e+01 7.00000000e+00 4.00000000e+01
9.82412060e+00 -2.60000000e+01 -1.10000000e+01 -6.80000000e+01
9.87437186e+00 8.90000000e+01 3.90000000e+01 7.00000000e+01
9.92462312e+00 -4.00000000e+00 -1.20000000e+01 -7.00000000e+00
9.97487437e+00 -1.00000000e+01 0.00000000e+00 5.20000000e+01
