energy_left_MeV,energy_right_MeV,energy_center_MeV,delta_u,counts,dPhi_du_n_cm-2_s-1,visible_in_figure
1.0,1.1220184543019633,1.0592537251772889,0.1151292546497022,0,0.0,True
1.1220184543019633,1.2589254117941673,1.1885022274370183,0.1151292546497024,0,0.0,True
1.2589254117941673,1.4125375446227544,1.3335214321633242,0.1151292546497022,0,0.0,True
1.4125375446227544,1.5848931924611136,1.4962356560944334,0.1151292546497022,0,0.0,True
1.5848931924611136,1.7782794100389228,1.6788040181225605,0.1151292546497022,0,0.0,True
1.7782794100389228,1.9952623149688797,1.8836490894898006,0.1151292546497024,0,0.0,True
1.9952623149688797,2.23872113856834,2.113489039836647,0.1151292546497024,0,0.0,True
2.23872113856834,2.51188643150958,2.3713737056616555,0.1151292546497022,0,0.0,True
2.51188643150958,2.8183829312644537,2.6607250597988097,0.1151292546497022,0,0.0,True
2.8183829312644537,3.1622776601683795,2.9853826189179595,0.1151292546497024,0,0.0,True
3.1622776601683795,3.548133892335755,3.349654391578277,0.1151292546497024,0,0.0,True
3.548133892335755,3.981071705534973,3.758374042884442,0.1151292546497024,0,0.0,True
3.981071705534973,4.466835921509632,4.216965034285823,0.1151292546497022,0,0.0,True
4.466835921509632,5.011872336272724,4.731512589614805,0.1151292546497024,0,0.0,True
5.011872336272724,5.623413251903491,5.308844442309884,0.1151292546497022,0,0.0,True
5.623413251903491,6.309573444801933,5.9566214352901055,0.1151292546497024,0,0.0,True
6.309573444801933,7.07945784384138,6.683439175686147,0.1151292546497024,0,0.0,True
7.07945784384138,7.943282347242816,7.498942093324559,0.1151292546497022,0,0.0,True
7.943282347242816,8.912509381337456,8.413951416451951,0.1151292546497022,0,0.0,True
8.912509381337456,10.0,9.440608762859235,0.1151292546497022,0,0.0,True
10.0,11.220184543019636,10.592537251772889,0.1151292546497024,0,0.0,True
11.220184543019636,12.589254117941675,11.885022274370186,0.1151292546497024,0,0.0,True
12.589254117941675,14.125375446227547,13.335214321633243,0.1151292546497024,0,0.0,True
14.125375446227547,15.848931924611142,14.96235656094434,0.1151292546497024,0,0.0,True
15.848931924611142,17.78279410038923,16.788040181225607,0.1151292546497018,0,0.0,True
17.78279410038923,19.952623149688797,18.836490894898006,0.1151292546497024,0,0.0,True
19.952623149688797,22.3872113856834,21.134890398366473,0.1151292546497024,4344,8.734144580498722e-05,True
22.3872113856834,25.11886431509581,23.71373705661656,0.1151292546497024,5141,0.00010336610793817663,True
25.11886431509581,28.18382931264455,26.607250597988106,0.1151292546497024,5833,0.00011727961633989191,True
28.18382931264455,31.622776601683793,29.853826189179603,0.1151292546497018,6759,0.0001358979816288931,True
31.622776601683793,35.48133892335755,33.496543915782766,0.1151292546497024,7345,0.00014768023007311951,True
35.48133892335755,39.810717055349734,37.58374042884442,0.1151292546497024,8602,0.00017295375617276706,True
39.810717055349734,44.668359215096324,42.16965034285823,0.1151292546497024,9809,0.00019722197097171262,True
44.668359215096324,50.11872336272725,47.31512589614807,0.1151292546497024,11236,0.00022591355549374687,True
50.11872336272725,56.23413251903491,53.08844442309885,0.1151292546497018,13242,0.0002662466448779113,True
56.23413251903491,63.09573444801933,59.56621435290105,0.1151292546497024,14338,0.00028828306858929713,True
63.09573444801933,70.79457843841381,66.83439175686146,0.1151292546497024,14846,0.00029849703140442913,True
70.79457843841381,79.43282347242817,74.9894209332456,0.1151292546497022,15229,0.0003061977159678068,True
79.43282347242817,89.12509381337459,84.13951416451954,0.1151292546497024,15149,0.0003045892178866831,True
89.12509381337459,100.0,94.40608762859236,0.1151292546497018,15010,0.0003017944524707332,True
100.0,112.20184543019641,105.92537251772892,0.11512925464970299,15092,0.0003034431630038813,True
112.20184543019641,125.89254117941675,118.85022274370189,0.115129254649702,15204,0.00030569506031745636,True
125.89254117941675,141.2537544622754,133.3521432163324,0.1151292546497018,14950,0.00030058807890989084,True
141.2537544622754,158.48931924611142,149.62356560944335,0.11512925464970299,14453,0.0002905952845809102,True
158.48931924611142,177.82794100389228,167.88040181225605,0.1151292546497018,13917,0.000279818347437388,True
177.82794100389228,199.52623149688807,188.36490894898012,0.11512925464970279,12980,0.0002609788136622307,True
199.52623149688807,223.872113856834,211.34890398366477,0.115129254649702,11631,0.00023385551476929326,True
223.872113856834,251.18864315095823,237.13737056616566,0.11512925464970299,10340,0.00020789837698516648,True
251.18864315095823,281.8382931264455,266.07250597988116,0.1151292546497018,9068,0.00018232325749531036,True
281.8382931264455,316.22776601683796,298.538261891796,0.115129254649702,7638,0.0001535713542952336,True
316.22776601683796,354.81338923357566,334.9654391578278,0.11512925464970279,6692,0.00013455086448595132,True
354.81338923357566,398.1071705534973,375.8374042884443,0.1151292546497018,5533,0.00011124774853568066,True
398.1071705534973,446.6835921509635,421.69650342858245,0.11512925464970299,4751,9.552467979270077e-05,True
446.6835921509635,501.18723362727246,473.1512589614807,0.1151292546497018,3962,7.966086746762458e-05,True
501.18723362727246,562.341325190349,530.8844442309884,0.1151292546497018,3537,7.111572141165779e-05,True
562.341325190349,630.9573444801937,595.6621435290107,0.11512925464970299,3118,6.269121271177457e-05,True
630.9573444801937,707.945784384138,668.3439175686149,0.1151292546497018,2888,5.806678072854613e-05,True
707.945784384138,794.3282347242822,749.8942093324563,0.11512925464970299,2329,4.6827400386697556e-05,True
794.3282347242822,891.2509381337459,841.3951416451956,0.1151292546497018,2070,4.161988784906181e-05,True
891.2509381337459,1000.0,944.0608762859235,0.1151292546497018,1794,3.60705694691869e-05,True
1000.0,1122.018454301964,1059.2537251772892,0.11512925464970279,1518,3.052125108931173e-05,True
1122.018454301964,1258.9254117941675,1188.502227437019,0.115129254649702,1164,2.3403647080341962e-05,True
1258.9254117941675,1412.5375446227554,1333.5214321633248,0.11512925464970279,1054,2.1191962218797473e-05,True
1412.5375446227554,1584.893192461114,1496.2356560944343,0.1151292546497018,861,1.731146059808803e-05,True
1584.893192461114,1778.2794100389228,1678.8040181225606,0.115129254649702,716,1.4396057826052273e-05,True
1778.2794100389228,1995.262314968881,1883.6490894898013,0.11512925464970299,580,1.1661611088142801e-05,True
1995.262314968881,2238.72113856834,2113.4890398366474,0.1151292546497018,523,1.051555620534267e-05,True
2238.72113856834,2511.886431509582,2371.3737056616565,0.11512925464970299,383,7.700684563377057e-06,True
2511.886431509582,2818.382931264455,2660.725059798811,0.1151292546497018,320,6.4339923244926465e-06,True
2818.382931264455,3162.2776601683795,2985.38261891796,0.115129254649702,281,5.649849509945096e-06,True
3162.2776601683795,3548.1338923357566,3349.6543915782777,0.11512925464970279,212,4.262519914976342e-06,True
3548.1338923357566,3981.0717055349733,3758.374042884443,0.1151292546497018,195,3.920714072737706e-06,True
3981.0717055349733,4466.835921509635,4216.965034285825,0.11512925464970299,176,3.538695778470919e-06,True
4466.835921509635,5011.872336272725,4731.512589614807,0.1151292546497018,140,2.8148716419655327e-06,True
5011.872336272725,5623.413251903491,5308.8444423098845,0.1151292546497018,125,2.51327825175494e-06,True
5623.413251903491,6309.573444801937,5956.621435290106,0.11512925464970279,89,1.789454115249502e-06,True
6309.573444801937,7079.457843841381,6683.43917568615,0.1151292546497018,56,1.1259486567862132e-06,True
7079.457843841381,7943.282347242822,7498.942093324562,0.11512925464970279,61,1.2264797868564003e-06,True
7943.282347242822,8912.509381337459,8413.951416451955,0.1151292546497018,49,9.852050746879365e-07,True
8912.509381337459,10000.0,9440.608762859236,0.1151292546497018,36,7.238241365054227e-07,True
10000.0,11220.18454301963,10592.537251772887,0.1151292546497018,34,6.836116844773437e-07,True
11220.18454301963,12589.254117941688,11885.022274370189,0.11512925464970399,28,5.629743283930959e-07,True
12589.254117941688,14125.375446227554,13335.214321633253,0.1151292546497018,18,3.6191206825271135e-07,True
14125.375446227554,15848.93192461114,14962.356560944343,0.1151292546497018,16,3.216996162246323e-07,True
15848.93192461114,17782.794100389227,16788.040181225606,0.1151292546497018,15,3.0159339021059283e-07,True
17782.794100389227,19952.62314968879,18836.490894898,0.115129254649702,12,2.4127471216847383e-07,True
19952.62314968879,22387.211385683422,21134.890398366475,0.11512925464970378,9,1.8095603412635258e-07,True
22387.211385683422,25118.864315095823,23713.737056616577,0.115129254649702,8,1.6084980811231589e-07,True
25118.864315095823,28183.82931264455,26607.250597988113,0.1151292546497018,5,1.005311300701976e-07,True
28183.82931264455,31622.776601683792,29853.826189179603,0.1151292546497018,3,6.031867804211856e-08,True
31622.776601683792,35481.33892335753,33496.54391578276,0.1151292546497018,5,1.005311300701976e-07,True
35481.33892335753,39810.71705534977,37583.74042884443,0.11512925464970399,4,8.042490405615657e-08,True
39810.71705534977,44668.359215096345,42169.650342858266,0.1151292546497018,3,6.031867804211856e-08,True
44668.359215096345,50118.72336272725,47315.12589614808,0.115129254649702,1,2.0106226014039486e-08,True
50118.72336272725,56234.13251903491,53088.44442309885,0.1151292546497018,2,4.021245202807904e-08,True
56234.13251903491,63095.73444801943,59566.214352901094,0.11512925464970399,0,0.0,True
63095.73444801943,70794.57843841388,66834.39175686156,0.115129254649702,3,6.031867804211846e-08,True
70794.57843841388,79432.82347242821,74989.42093324567,0.1151292546497018,1,2.010622601403952e-08,True
79432.82347242821,89125.0938133746,84139.51416451955,0.115129254649702,0,0.0,True
89125.0938133746,100000.0,94406.08762859236,0.1151292546497018,0,0.0,True
